0,0.011921,0.00149
0.0005,0.008047,0.00447
0.001,0.008941,0.007749
0.0015,0.008941,0.009537
0.002,0.006557,0.004172
0.0025,0.004768,0.00447
0.003,0.005066,0.005662
0.0035,0.008643,0.00298
0.004,0.00447,0.000298
0.0045,0.00447,0.008345
0.005,0.006855,0.007749
0.0055,0.008047,0.006557
0.006,0.005662,0.010431
0.0065,0.006258,0.003278
0.007,0.005662,0.002384
0.0075,0.003874,0.000894
0.008,0.007749,0.006855
0.0085,0.005662,0.005662
0.009,0.003576,0.004768
0.0095,0.004172,0.004768
0.01,0.006855,0.004172
0.0105,0.006855,0.006557
0.011,0.008941,0.004768
0.0115,0.006855,0.004172
0.012,0.007749,0.005364
0.0125,0.006557,0.007451
0.013,0.007451,0.004768
0.0135,0.010133,0.00447
0.014,0.006855,0.000894
0.0145,0.008643,0.003576
0.015,0.009835,-0.001192
0.0155,0.005364,0.003278
0.016,0.00447,0.007451
0.0165,0.003278,0.007153
0.017,0.00596,0.006557
0.0175,0.003874,0.00149
0.018,0.001788,0.004768
0.0185,0.007451,0.006557
0.019,0.00298,0.009239
0.0195,0.005066,0.00596
0.02,0.006557,0.006855
0.0205,0.008047,0.007153
0.021,0.006557,0.00149
0.0215,0.008941,0.003278
0.022,0.008643,0.002384
0.0225,0.011921,0.004172
0.023,0.007749,0.000298
0.0235,0.007749,0.001788
0.024,0.004768,0.00149
0.0245,0.006258,0.00298
0.025,0.002384,0.003576
0.0255,0.003278,0.002682
0.026,0.005066,0.00298
0.0265,0.006258,0.002086
0.027,0.002682,0.003576
0.0275,-0.000894,0.005662
0.028,-0.000298,0.004768
0.0285,0,0.00596
0.029,-0.002086,0.008643
0.0295,-0.001192,0.007451
0.03,0.000894,0.005662
0.0305,0.005364,0.003874
0.031,0.002682,0.004172
0.0315,0.001192,0.00447
0.032,0.001788,0.001788
0.0325,0.00447,-0.000596
0.033,0.003874,0.002682
0.0335,0.003576,0.000298
0.034,-0.001788,0.002086
0.0345,-0.006557,0.004172
0.035,-0.00298,0.002384
0.0355,0.00149,0.003278
0.036,0.003874,0.00298
0.0365,0.004768,0.003278
0.037,0.00149,0.003278
0.0375,-0.001192,0.005066
0.038,0.000596,0.003278
0.0385,0.003874,0.003874
0.039,0.003576,0.007451
0.0395,0.002682,0.00447
0.04,0.00298,0.004172
0.0405,0.002086,0.001788
0.041,0.003278,0.003278
0.0415,0.008047,0.007749
0.042,0.005066,0.008047
0.0425,0.004172,0.005662
0.043,0,0.003874
0.0435,0.001192,0.006855
0.044,0.001192,0.00298
0.0445,0.005364,0.004768
0.045,0.005662,0.005066
0.0455,0.006855,0.005364
0.046,0.003576,0.001788
0.0465,0.002384,0.002384
0.047,0.00149,0.004768
0.0475,0.00149,0.012219
0.048,-0.000298,0.015199
0.0485,-0.001192,0.014901
0.049,0,0.010133
0.0495,0.000298,0.012815
0.05,-0.000894,0.008643
0.0505,0.00298,0.005662
0.051,0.007749,0.00447
0.0515,0.006258,0.009835
0.052,0.004768,0.006258
0.0525,0.003278,0.006557
0.053,0.002682,0.007153
0.0535,0.003874,0.004172
0.054,0.00596,0.007749
0.0545,0.007153,0.006258
0.055,0.005066,0.008047
0.0555,-0.003874,0.010431
0.056,0,0.011921
0.0565,0.003278,0.008345
0.057,0.005066,0.008345
0.0575,0.006855,0.008345
0.058,0.003874,0.004768
0.0585,0.003278,0.00149
0.059,0.005662,0.001788
0.0595,0.007451,0.002384
0.06,0.008047,-0.000894
0.0605,0.00447,0.000298
0.061,0.003576,0.001192
0.0615,0.002682,0.004768
0.062,0.00447,0.007153
0.0625,0.007749,0.007451
0.063,0.005662,0.001788
0.0635,0.009239,0.002682
0.064,0.011027,0.003576
0.0645,0.008941,0
0.065,0.004768,0.001788
0.0655,0.005066,0.006258
0.066,-0.001192,0.003576
0.0665,0.00298,0.004172
0.067,0.000894,0.00447
0.0675,0.003576,0.002682
0.068,0.00596,0.001788
0.0685,0.006557,-0.00298
0.069,0.004172,0.002682
0.0695,0.00149,-0.002086
0.07,0.000298,0.004172
0.0705,0.002682,0.005364
0.071,0.000894,0.001192
0.0715,0.000298,0.000298
0.072,0.006258,0.000894
0.0725,0.005066,0.003278
0.073,0,0.007451
0.0735,0.00596,0.005066
0.074,0.008047,-0.000298
0.0745,0.004172,0.002384
0.075,0.000298,0.004768
0.0755,0.001192,0.011325
0.076,0.002384,0.008941
0.0765,0.003874,0.005364
0.077,0.003576,0.005066
0.0775,0.004768,0.008941
0.078,0.00447,0.006258
0.0785,0.002682,0.005364
0.079,0.004172,0.011325
0.0795,0.007153,0.005662
0.08,0.002682,0.006557
0.0805,0.005364,0.002682
0.081,0.003874,0.002682
0.0815,0.005364,0.009239
0.082,0.005662,0.008643
0.0825,0.00596,0.004172
0.083,0.00149,0.00447
0.0835,0.003576,0.007153
0.084,0.006258,0.008047
0.0845,0.008047,0.00447
0.085,0.005662,0.010431
0.0855,0.007153,0.006855
0.086,0.007749,0.00447
0.0865,0.009239,0.003576
0.087,0.003874,0.003874
0.0875,0.005662,0.004768
0.088,0.004172,0.010431
0.0885,0.004172,0.005066
0.089,0.000596,0.009239
0.0895,0.005066,0.003874
0.09,0.003278,0
0.0905,0.00447,0.000298
0.091,0.002682,0.007749
0.0915,0.00447,0.011027
0.092,0.006855,0.005066
0.0925,0.009239,0.001788
0.093,0.009835,-0.001788
0.0935,0.007451,0.00447
0.094,0.00596,0.000596
0.0945,0.007451,-0.002086
0.095,0.005364,0.002086
0.0955,0.007153,0.00447
0.096,0.00149,0.004172
0.0965,0.00447,0.003278
0.097,0.00447,0.002682
0.0975,0.007749,0.002384
0.098,0.005364,0.00298
0.0985,0.007451,0.005364
0.099,0.007153,0.002384
0.0995,0.00596,0.001192
0.1,0.005662,0.002682
0.1005,0.005066,0.002682
0.101,0.008941,0.001192
0.1015,0.006258,0.00149
0.102,0.005662,0
0.1025,0.007451,0.00447
0.103,0.004172,0.00298
0.1035,0.008345,0.002682
0.104,0.007749,-0.00149
0.1045,0.003874,-0.002086
0.105,0.006258,0.004768
0.1055,0.003278,0.010729
0.106,0.006557,0.008047
0.1065,0.003874,0.00596
0.107,0.003278,0.005364
0.1075,0.008643,0.009835
0.108,0.007451,0.005066
0.1085,0.008643,0.001192
0.109,0.007451,0.000298
0.1095,0.005066,0.003576
0.11,0.008345,0.004172
0.1105,0.008941,0.005662
0.111,0.00596,0.000298
0.1115,0.009239,0.006557
0.112,0.000596,0.007451
0.1125,0.003576,0.002682
0.113,0.006557,0.004768
0.1135,0.009239,0.010133
0.114,0.006855,0.008643
0.1145,0.006258,0.006258
0.115,0.007451,0.003278
0.1155,0.007749,0.004172
0.116,0.005066,0.002384
0.1165,0.00596,0.001192
0.117,0.005662,0
0.1175,0.007153,0.002384
0.118,0.008941,0.000894
0.1185,0.009537,0.00596
0.119,0.005066,0.002086
0.1195,0.006557,0.006557
0.12,0.003874,0.006258
0.1205,0.005364,0.004768
0.121,0.007153,0.004172
0.1215,0.00447,0.000894
0.122,0.00596,0.008345
0.1225,0.002682,0.009239
0.123,0.004768,0.00149
0.1235,0.006258,0.001192
0.124,0.007749,-0.000894
0.1245,0.009537,-0.003576
0.125,0.009537,-0.005066
0.1255,0.010133,-0.001192
0.126,0.003278,-0.000596
0.1265,0.000596,0.001192
0.127,-0.002384,0.002682
0.1275,0.00298,0.005066
0.128,0.001788,0.004172
0.1285,0.004172,0.005364
0.129,0.003874,0.00447
0.1295,0.003576,0.005066
0.13,0.002384,0.005662
0.1305,0.007153,0.007153
0.131,0.004768,0.006258
0.1315,0.001788,0.006557
0.132,0.00596,0.004768
0.1325,0.008047,0.008345
0.133,0.005066,0.005364
0.1335,0.008941,0.002682
0.134,0.012219,0.002682
0.1345,0.013113,0.002086
0.135,0.011027,0.001788
0.1355,0.010729,0.005662
0.136,0.006855,0.007451
0.1365,0.007451,0.005364
0.137,0.009537,0.002384
0.1375,0.00596,0.00447
0.138,0.001788,0.009239
0.1385,0,0.011027
0.139,0.000894,0.011027
0.1395,0.006258,0.006258
0.14,0.007153,0.006258
0.1405,0.00447,0.002086
0.141,0.00149,0.007153
0.1415,0.004172,0.009239
0.142,0.005066,0.006855
0.1425,0.002384,0.010729
0.143,0.002682,0.008941
0.1435,0.000596,0.007153
0.144,0.002384,0.007749
0.1445,0.004768,0.00596
0.145,0.00298,0.008047
0.1455,-0.001788,0.005662
0.146,0.00298,0.007749
0.1465,0.005364,0.006855
0.147,0.00149,0.006557
0.1475,0.003874,0.008643
0.148,0.006557,0.007451
0.1485,0.007451,0.00298
0.149,0.007153,0.00149
0.1495,0.005662,0.004768
0.15,0.006557,0.00149
0.1505,0.004172,0.005066
0.151,0.005662,0.00298
0.1515,0.005662,0.000596
0.152,0.006855,0.00298
0.1525,0.006557,0.007153
0.153,0.005662,0.008941
0.1535,0.006258,0.005662
0.154,0.002682,0.004172
0.1545,0.004768,0.005364
0.155,0,0.008345
0.1555,0.000596,0.006557
0.156,0.002086,0.00596
0.1565,-0.000596,0.00447
0.157,0.005662,0.000298
0.1575,0.00596,0.00298
0.158,0.003874,0.00447
0.1585,0.003874,0.003278
0.159,0.008047,0.002086
0.1595,0.011027,0.002086
0.16,0.013113,0.002682
0.1605,0.011027,-0.000298
0.161,0.007451,0.00298
0.1615,0.005364,0.005066
0.162,0.004768,0.001788
0.1625,0.003278,0.005066
0.163,-0.002384,0.004768
0.1635,-0.001788,0.004172
0.164,0.001788,0.002682
0.1645,0.004172,0.000894
0.165,0.00447,0.005662
0.1655,0.003278,0.00298
0.166,0.002086,0.005364
0.1665,0.002086,0.006855
0.167,0.004172,0.007153
0.1675,0.00447,0.003874
0.168,-0.000298,0.005066
0.1685,-0.000298,0.007749
0.169,-0.002682,0.010133
0.1695,-0.00149,0.007153
0.17,-0.00149,0.00596
0.1705,0.002086,0.009239
0.171,0.001788,0.007153
0.1715,0.00447,0.00596
0.172,0.008047,0.006557
0.1725,0.004768,0.011027
0.173,0.004768,0.003278
0.1735,0.001788,0.000298
0.174,0.003874,0.003874
0.1745,0.00298,0.004172
0.175,0.005066,0.003278
0.1755,0.007451,0.004172
0.176,0.008047,0.002086
0.1765,0.00596,0.001788
0.177,0.00596,0.002086
0.1775,0.006557,0.003874
0.178,0.007153,-0.002384
0.1785,0.008643,-0.001192
0.179,0.006855,-0.00149
0.1795,0.000894,0.00298
0.18,-0.002384,0.005066
0.1805,0.00149,0.004768
0.181,0.002086,0.005066
0.1815,0.003576,0.00596
0.182,0.001788,0.004172
0.1825,0.00447,0.000298
0.183,0.003576,0.004768
0.1835,0.004768,-0.000298
0.184,0.002384,0.003576
0.1845,0.004172,0.003576
0.185,0,0.003278
0.1855,0.002086,0.001192
0.186,0.001788,0.00149
0.1865,0.002384,0.004172
0.187,0.001788,0.003278
0.1875,-0.003576,-0.00149
0.188,0.003576,0.002086
0.1885,0.00596,0.000894
0.189,0.005364,0.002682
0.1895,0.00447,0.00298
0.19,0.00298,0.003278
0.1905,0.003576,0.003874
0.191,0.002086,0.005662
0.1915,0.002384,0.003278
0.192,0.00298,0.003576
0.1925,0.007451,0.00298
0.193,0.003874,0.00149
0.1935,0.00447,0.002384
0.194,0.005364,0.007749
0.1945,0.006258,0.007153
0.195,0.008643,0.002086
0.1955,0.009239,0.002086
0.196,0.005066,0.002086
0.1965,0.001788,0.003874
0.197,0.008047,0.004172
0.1975,0.008047,0.00298
0.198,0.004172,0.005662
0.1985,0.004172,0.008345
0.199,0.00447,0.008941
0.1995,0.003278,0.008345
0.2,0.002086,0.007749
0.2005,0.005066,0.010431
0.201,0.007451,0.008345
0.2015,0.008941,0.003874
0.202,0.009537,0.007749
0.2025,0.011325,0.003576
0.203,0.010431,0.001788
0.2035,0.004172,0.00149
0.204,0.006258,0.004768
0.2045,0.006855,0.002086
0.205,0.007749,0.001192
0.2055,0.005066,0.000596
0.206,0.003576,0.001788
0.2065,0.005066,0.005364
0.207,0.007153,0.001192
0.2075,0.010431,0.00149
0.208,0.005662,0.00298
0.2085,0.005066,0.003874
0.209,0.001788,0.003278
0.2095,0.009537,0.007451
0.21,0.007451,0.005364
0.2105,0.006557,0.00447
0.211,0.005364,0.001192
0.2115,0.008941,0.005364
0.212,0.003576,0.005066
0.2125,-0.002384,0.005662
0.213,0.003278,0.008643
0.2135,0.006258,0.004172
0.214,0.004768,0.008345
0.2145,0.00447,0.00447
0.215,0.002682,0.003278
0.2155,0.003278,0.003874
0.216,0.006258,0.005066
0.2165,0.005066,0.006258
0.217,0.00447,0.003874
0.2175,0.007451,0.00298
0.218,0.005662,0.00447
0.2185,0.00447,0.007451
0.219,0.007451,0.009835
0.2195,0.006258,0.009537
0.22,0.004768,0.010133
0.2205,0.002682,0.006855
0.221,0.004768,0.006258
0.2215,0.007451,0.006855
0.222,0.007749,0.007451
0.2225,0.005662,0.00596
0.223,0.006855,0.009239
0.2235,0.00596,0.005364
0.224,0.00596,0.008643
0.2245,0.003874,0.008345
0.225,0.00447,0.009239
0.2255,0.006557,0.007451
0.226,0.00149,0.007153
0.2265,0.003278,0.010133
0.227,0.004172,0.008345
0.2275,0.007153,0.005364
0.228,0.005662,0.004172
0.2285,0.003874,0.004768
0.229,0.007749,0.00596
0.2295,0.005662,0.004768
0.23,0.004172,0.005066
0.2305,0.005662,0.003874
0.231,0.005662,0.003576
0.2315,0.008643,0.00447
0.232,0.009835,0.000596
0.2325,0.009537,0.002682
0.233,0.007451,0.002086
0.2335,0.011325,0.003278
0.234,0.007153,0.006855
0.2345,0.000596,0.005364
0.235,0.003278,0.006258
0.2355,0.00596,0.007749
0.236,0.000894,0.007749
0.2365,0.005066,0.003576
0.237,0.009835,0.00447
0.2375,0.009537,0.003576
0.238,0.002682,0.005662
0.2385,0.002086,0.007153
0.239,0.003278,0.007153
0.2395,0.003874,0.006855
0.24,0.008345,0.004768
0.2405,0.009239,0.005364
0.241,0.004768,0.00149
0.2415,0.003278,0.000894
0.242,0.00596,0.00298
0.2425,0.003874,0.005662
0.243,0.002682,0.005364
0.2435,-0.000894,0.008643
0.244,0.003576,0.008345
0.2445,0.002384,0.005066
0.245,0.004172,0.004172
0.2455,0.003874,0.005066
0.246,0.003576,0.008345
0.2465,0.003278,0.002682
0.247,0.007153,0.003278
0.2475,0.00447,0.006557
0.248,0.003576,0.000596
0.2485,0.004768,0.003576
0.249,0.002086,0.008345
0.2495,0.003278,0.007153
0.25,0.003278,0.013411
0.2505,-0.001788,0.010729
0.251,-0.004172,0.012517
0.2515,0.000298,0.014007
0.252,0.003576,0.011027
0.2525,0.008047,0.011623
0.253,-0.000894,0.007749
0.2535,-0.001788,0.002682
0.254,0.001788,0.003874
0.2545,0.003278,0.008047
0.255,0.003874,0.002682
0.2555,0.002682,0.00298
0.256,0.004768,0.003278
0.2565,0.006557,0.003874
0.257,0.005662,0.006557
0.2575,0.006258,0.010431
0.258,0.006855,0.009239
0.2585,0.008643,0.009537
0.259,0.006258,0.00447
0.2595,0.007153,0.005364
0.26,0.009537,0.005662
0.2605,0.006855,0.004768
0.261,0.006258,0.00298
0.2615,0.005662,0.000894
0.262,0.004768,0.001788
0.2625,0.004768,0.00447
0.263,0.001788,0.008047
0.2635,0,0.003874
0.264,0.003576,0.006258
0.2645,0.004768,0.007749
0.265,0.004768,0.002086
0.2655,0.002384,0.007749
0.266,0.001192,0.005066
0.2665,-0.000298,0.00447
0.267,0.002384,0.002086
0.2675,0.001192,0.003576
0.268,0.002682,0
0.2685,0.002384,-0.002682
0.269,0.002384,0.003278
0.2695,0.005662,0.000298
0.27,0.003874,0.00149
0.2705,0.006557,0.006855
0.271,0.008941,0.003874
0.2715,0.003576,0.003874
0.272,0.003576,0.004768
0.2725,0.002086,0.000894
0.273,0.001788,-0.000298
0.2735,0.005364,0.003874
0.274,-0.000298,0.003874
0.2745,0.000596,0.003874
0.275,0.002682,0.003278
0.2755,0.001192,0.003278
0.276,0.006258,0.003874
0.2765,0.001788,0.004172
0.277,0.000596,0.005364
0.2775,0.004172,0.005364
0.278,0.001788,-0.00298
0.2785,0.008643,-0.003278
0.279,0.011921,-0.005066
0.2795,0.004768,0.000894
0.28,0.005066,0.004172
0.2805,0.006258,0.005066
0.281,0.004768,0.000596
0.2815,0.006557,0.002384
0.282,0.005066,0
0.2825,0.008941,-0.002682
0.283,0.013113,0.001192
0.2835,0.009239,-0.002086
0.284,0.005364,-0.001788
0.2845,0.002384,-0.000298
0.285,0.003576,0.005662
0.2855,0.005662,0.005066
0.286,0.005066,0.004768
0.2865,0.004172,0.002384
0.287,0.00596,0.005364
0.2875,0.007451,0.004768
0.288,0.007451,0.00149
0.2885,0.005364,-0.00298
0.289,0.003278,0.005066
0.2895,0.00298,0.006258
0.29,0.002384,0.010133
0.2905,-0.002682,0.006855
0.291,0.002086,0.011623
0.2915,0.00298,0.009835
0.292,0.003576,0.008345
0.2925,0.008643,0.001192
0.293,0.008047,0.002086
0.2935,0.007153,-0.001192
0.294,0.007451,-0.002086
0.2945,0.006258,-0.000596
0.295,0.00596,0.002384
0.2955,0.001788,0.005066
0.296,-0.001192,0.008345
0.2965,0.000596,0.007153
0.297,0.00298,0.005364
0.2975,0.003278,0.005662
0.298,0.004768,0.00298
0.2985,0.007749,0.003576
0.299,0.004172,0.004172
0.2995,0.002384,0.002682
0.3,0.00298,0.005662
0.3005,0.006855,0.00596
0.301,0.006855,0.007749
0.3015,0.004172,0.003278
0.302,0.00596,0.002682
0.3025,0.007451,0.00447
0.303,0.00447,0.003874
0.3035,0.004768,0.001788
0.304,0.005662,0.002086
0.3045,0.008345,0.005662
0.305,0.000298,0.007153
0.3055,0.000298,0.009239
0.306,0.004172,0.008345
0.3065,0.00596,0.004768
0.307,0.006855,0.008643
0.3075,0.00447,0.006557
0.308,0.001192,0.005662
0.3085,0.007451,0.008047
0.309,0.002384,0.007451
0.3095,0.006855,0.00447
0.31,0.007749,0.003874
0.3105,0.005662,0.006855
0.311,0.006258,0.007451
0.3115,0.004768,0.004768
0.312,0.004172,0.004768
0.3125,0.001788,0.006557
0.313,0.003278,0.005364
0.3135,0.00298,0.004172
0.314,0.005066,0.004172
0.3145,0.008345,0.00596
0.315,0.008345,0.005364
0.3155,0.008047,0.005364
0.316,0.010729,0.003874
0.3165,0.006855,0.005364
0.317,0.007749,0.004172
0.3175,0.00596,0.002682
0.318,0.00596,0.005066
0.3185,0.006557,0.005066
0.319,0.006258,0.006855
0.3195,0.006557,0.003278
0.32,0.005066,0.002384
0.3205,0.008941,0.005066
0.321,0.009835,0.003576
0.3215,0.005066,0.002384
0.322,0.004768,0.00596
0.3225,0.003278,0.00149
0.323,0.007153,-0.000894
0.3235,0.009537,0.000894
0.324,0.006258,-0.001788
0.3245,0.005066,0.002384
0.325,0.008941,0.005662
0.3255,0.009537,0.001788
0.326,0.005662,0.006855
0.3265,0.004172,0.008345
0.327,0.003576,0.008345
0.3275,0.00596,0.010133
0.328,0.005662,0.005662
0.3285,0.003874,0.004172
0.329,0.004768,0.007153
0.3295,0.004768,0.00298
0.33,0.006258,0.004172
0.3305,0.008941,-0.000596
0.331,0.008047,0
0.3315,0.007153,0.000894
0.332,0.007451,0.00298
0.3325,0.009835,0.00298
0.333,0.009835,0.00447
0.3335,0.001788,0.007749
0.334,-0.001192,0.007749
0.3345,0.00298,0.001788
0.335,0.001192,0.00149
0.3355,0.007153,0.001788
0.336,0.006557,0.00447
0.3365,0.005364,0.001192
0.337,0.003874,0.002086
0.3375,0.005066,0.006855
0.338,0.005364,0.005662
0.3385,0.00447,0.005066
0.339,0.004172,0.005662
0.3395,0,0.004172
0.34,0.005066,0.006258
0.3405,0.002384,0.005662
0.341,0.00447,0.005364
0.3415,0.004172,0.00596
0.342,0.00149,0.003874
0.3425,0.002384,0.004768
0.343,0.002682,0.005066
0.3435,0.00596,0.005364
0.344,0.006258,0.007451
0.3445,0.007153,0.009537
0.345,0.004172,0.006258
0.3455,0.008345,0.004768
0.346,0.008047,0.002086
0.3465,0.002682,0.000596
0.347,0.007153,0.004768
0.3475,0.008345,0.006258
0.348,0.005364,0.008941
0.3485,0.003278,0.004768
0.349,0.006557,0.00596
0.3495,0.00298,0.006557
0.35,0.006258,0.011623
0.3505,0.002682,0.00596
0.351,0.003874,0.005066
0.3515,0.005364,0.003278
0.352,0.008941,-0.000596
0.3525,0.007749,0.00298
0.353,0.007153,0.00596
0.3535,0.004768,0.003874
0.354,0.00447,0.003576
0.3545,0.002384,0.002384
0.355,0.007153,0.003874
0.3555,0.007451,0.003874
0.356,0.00596,0.006855
0.3565,0.003278,0.009239
0.357,0.007153,0.00596
0.3575,0.006855,0.00149
0.358,0.006855,0.005066
0.3585,0.005066,0.008047
0.359,0.005364,0.00596
0.3595,0.005066,0.006557
0.36,0.00298,0.004768
0.3605,0.006258,0.003576
0.361,0.009239,0.003576
0.3615,0.008643,0.000596
0.362,0.011027,0.005364
0.3625,0.007451,0.006557
0.363,0.004768,0.00447
0.3635,0.003278,0.005066
0.364,0.003874,0.004768
0.3645,0.000298,0.006557
0.365,0.001788,0.005662
0.3655,0.006557,0.00447
0.366,0.00596,0.006855
0.3665,0.008345,0.008643
0.367,0.004172,0.010729
0.3675,0.002086,0.007749
0.368,0.004768,0.003278
0.3685,0.012219,0.003874
0.369,0.005066,0.004172
0.3695,0.005066,0.009537
0.37,0.005364,0.008643
0.3705,0.008345,0.010133
0.371,0.001192,0.013411
0.3715,0.006557,0.008643
0.372,0.004768,0.007451
0.3725,0.008941,0.003576
0.373,0.006557,0.003278
0.3735,0.006855,0.009835
0.374,0.005364,0.006557
0.3745,0.001788,0.002086
0.375,0.006258,0.004768
0.3755,0.007451,0.004768
0.376,0.003874,0.00596
0.3765,0.001788,0.003576
0.377,0.00447,-0.000894
0.3775,0.010133,0.001788
0.378,0.011623,0.000596
0.3785,0.005066,0.006557
0.379,-0.001192,0.011325
0.3795,0.00298,0.00596
0.38,0.005364,0.005662
0.3805,0.004768,0.003576
0.381,0.003874,0.006557
0.3815,0.003278,0.008941
0.382,0.003576,0.005066
0.3825,0.005066,0.007153
0.383,0.001192,0.003278
0.3835,0.00298,0.006258
0.384,0.006855,0.007451
0.3845,0.007451,0.006557
0.385,0.003576,0.010729
0.3855,0.00298,0.008643
0.386,0.002086,0.008047
0.3865,0.004768,0.006258
0.387,0,0.007451
0.3875,0.005364,0.003576
0.388,0.00596,0.00447
0.3885,0.002086,0.008643
0.389,-0.001192,0.00596
0.3895,0.002682,0.00596
0.39,0.004172,0.008047
0.3905,0.004172,0.008643
0.391,0.008345,0.003874
0.3915,0.006855,0.010431
0.392,0.007153,0.006855
0.3925,0.010729,0.00447
0.393,0.006557,0.010133
0.3935,0.00447,0.009239
0.394,0.003576,0.005364
0.3945,0.007451,0.003278
0.395,0.002086,0.00596
0.3955,0.005066,0.007451
0.396,0.007749,0.003278
0.3965,0.007153,0
0.397,0.003874,0.000298
0.3975,0.006855,-0.000596
0.398,0.008047,0.002086
0.3985,0.002682,0.001788
0.399,0.007451,0.002086
0.3995,0.004768,0.004172
0.4,0.001788,-0.001788
0.4005,0.011027,-0.000596
0.401,0.011027,0.003278
0.4015,0.008941,-0.005364
0.402,0.010431,-0.001192
0.4025,0.009239,0.000298
0.403,0.009537,0.000894
0.4035,0.004768,-0.001192
0.404,0.007153,0.000596
0.4045,0.005662,0.00149
0.405,0.006557,0.003278
0.4055,0.010431,0.00149
0.406,0.009537,0.001192
0.4065,0.007153,0.00149
0.407,0.008047,0.00298
0.4075,0.009239,0.004172
0.408,0.000894,0.002682
0.4085,0.003576,0.004172
0.409,0.002682,0.004768
0.4095,0.00447,0.004768
0.41,0.006258,0
0.4105,0.007749,0.003278
0.411,0.003874,0.000894
0.4115,0.008941,0.00447
0.412,0.00596,0.00447
0.4125,0.007153,0.006258
0.413,0.008345,0.002682
0.4135,0.008047,0.002682
0.414,0.009239,-0.002682
0.4145,0.009239,0.00447
0.415,0.013113,0.002086
0.4155,0.005662,0.005066
0.416,0.004768,0.006258
0.4165,0.005364,0.002086
0.417,0.006258,0.00298
0.4175,0.002682,0.004172
0.418,0.004172,0.005066
0.4185,0.007451,0.003874
0.419,0.007153,0.002682
0.4195,0.006557,0.005662
0.42,0.005066,0.001788
0.4205,0.006258,0.005662
0.421,0.003874,0.002682
0.4215,0.002384,0.003278
0.422,0.004768,0.002384
0.4225,0.003576,0.001192
0.423,0.000298,0.002086
0.4235,0.003874,0.006258
0.424,0.006855,0.005364
0.4245,0.007153,0.004172
0.425,0.000894,0.009239
0.4255,0.001788,0.006258
0.426,0.004172,0.007749
0.4265,0.002682,0.007153
0.427,0.00149,0.00447
0.4275,0.002086,0.002086
0.428,0.00149,0.002384
0.4285,0.004768,0.000596
0.429,0.005364,0.003874
0.4295,0.007153,0.003874
0.43,0.000894,0.00149
0.4305,0.00447,0.000894
0.431,0.003874,0.002682
0.4315,0.006557,0.003874
0.432,0.004172,0.008047
0.4325,0.00298,0.00596
0.433,0.00298,0.000596
0.4335,0.005066,0.003874
0.434,0.004172,0.006557
0.4345,0.007153,0.002682
0.435,0.006258,0.000894
0.4355,0.004768,0.002384
0.436,0.002682,0.007749
0.4365,0.002384,0.010431
0.437,0.003874,0.005364
0.4375,0,0.002682
0.438,0.000298,0.005662
0.4385,0.00447,0.002384
0.439,0.004172,0.006855
0.4395,0.005662,0.008047
0.44,0.003278,0.004768
0.4405,-0.001192,0.00149
0.441,-0.001788,0.004768
0.4415,0.000298,0.00596
0.442,-0.001192,0.008643
0.4425,0,0.005364
0.443,0.000894,0.008047
0.4435,-0.000298,0.007749
0.444,-0.001192,0.003874
0.4445,0.000298,0.003278
0.445,-0.000894,0.003278
0.4455,0.002384,0.003874
0.446,0.007153,0.000596
0.4465,0.006855,-0.00149
0.447,0.00596,0.002384
0.4475,0.002682,0.00596
0.448,0.002086,0.003278
0.4485,0.003278,0.008941
0.449,0.005066,0.000298
0.4495,0.008345,0.006258
0.45,0.006258,0.008345
0.4505,0.003278,0.005364
0.451,-0.001192,0.005662
0.4515,0.00298,0.003576
0.452,0.006855,0.000894
0.4525,0.009835,0.000298
0.453,0.006855,0.003278
0.4535,0.00298,0.008643
0.454,-0.00149,0.007451
0.4545,0.00298,0.008345
0.455,0.002384,0.007749
0.4555,0.003278,0.007451
0.456,0.003874,0.013411
0.4565,0.004768,0.006258
0.457,0.004172,0.003278
0.4575,0.00298,0.006258
0.458,0.004172,0.005364
0.4585,0.006855,0.006557
0.459,0.002384,0.005066
0.4595,0.002086,0.00447
0.46,-0.000596,0.008941
0.4605,0.000298,0.006855
0.461,0.000894,0.008047
0.4615,-0.002086,0.004768
0.462,0.000298,0.007153
0.4625,0.000298,0.004768
0.463,-0.00149,0.00447
0.4635,0.005066,0.00447
0.464,0.003874,0.006855
0.4645,0.00447,0.003576
0.465,0.006855,0.002086
0.4655,0.006557,0.001788
0.466,0.005662,0.002086
0.4665,0.003278,0.001788
0.467,0.007749,0.006855
0.4675,0.00149,0.00596
0.468,0.000298,0.007153
0.4685,0.003278,0.002682
0.469,0.003576,0.005066
0.4695,0.003576,0.002086
0.47,0.005364,0
0.4705,0.002384,0.000298
0.471,0.005066,-0.000298
0.4715,0.002682,0.00447
0.472,0.003278,0.000596
0.4725,0.00596,0
0.473,0.005364,0.002384
0.4735,0.00596,0.006258
0.474,0.00149,0.003874
0.4745,0.003278,0.003874
0.475,0.001788,0.002086
0.4755,0.000596,0.00149
0.476,0.000596,0.00298
0.4765,-0.002682,0.000298
0.477,0.004768,-0.000894
0.4775,0.006258,0.002384
0.478,0.004172,0.005364
0.4785,0.001788,0.001192
0.479,0.002682,-0.002086
0.4795,0.001192,-0.000298
0.48,0.004172,-0.000298
0.4805,0.003874,0.000596
0.481,0.00298,0.004172
0.4815,0.00298,0.005662
0.482,0.004768,0.001192
0.4825,0.002682,0.003278
0.483,0.003874,-0.000894
0.4835,0.003576,0
0.484,-0.002086,0.002682
0.4845,0.003576,0.000596
0.485,0.004172,0.00298
0.4855,0.00447,0.002384
0.486,0.003576,0.003576
0.4865,0.003874,0.004172
0.487,0.001788,0.003576
0.4875,0.003278,0.00149
0.488,0.004768,0.00149
0.4885,0.007153,0.006258
0.489,0.000298,0.006557
0.4895,0.003278,0.009239
0.49,0.003278,0.009239
0.4905,0.00298,0.007749
0.491,0.004172,0.000596
0.4915,0.005364,-0.000596
0.492,0.00447,-0.000596
0.4925,0.004172,0.007451
0.493,0.004172,0.004768
0.4935,0.003874,0.004768
0.494,0.001192,0.000894
0.4945,0.00298,0.006258
0.495,0.004768,0.008643
0.4955,0.00298,0.007451
0.496,0.005662,0.002682
0.4965,0.003278,0.00596
0.497,0.002682,0.008047
0.4975,0.005364,0.007451
0.498,0.004768,0.006557
0.4985,0.003576,0.005364
0.499,-0.004172,0.004172
0.4995,-0.004768,0.009239
0.5,0.002384,0.008345
0.5005,0.00298,0.003874
0.501,0.003874,0.008345
0.5015,0.003278,0.007451
0.502,0.005662,0.010133
0.5025,0.005662,0.005662
0.503,0.003576,0.004768
0.5035,0.00149,0.009239
0.504,-0.000596,0.013709
0.5045,0.000894,0.012219
0.505,0.001192,0.007153
0.5055,0.001192,0.00447
0.506,0.002682,0.008643
0.5065,0.00298,0.004172
0.507,0.002384,0.006258
0.5075,0.003874,0.005066
0.508,0.002384,0.006855
0.5085,0.002682,0.009239
0.509,-0.000298,0.008047
0.5095,0.000298,0.009239
0.51,0.003278,0.008643
0.5105,0.002384,0.009537
0.511,0.004768,0.006855
0.5115,0.007153,0.008047
0.512,0.004172,0.003278
0.5125,0.003874,0.003874
0.513,0.00149,0.003576
0.5135,0.00149,0.004768
0.514,0.001788,0.007451
0.5145,0.001788,0.00596
0.515,0.005662,0.008643
0.5155,0.004768,0.006557
0.516,0.001192,0.005066
0.5165,0.003278,0.005066
0.517,0.002682,0.00447
0.5175,0.003278,0.004172
0.518,0.002384,-0.000298
0.5185,0.000894,-0.000596
0.519,-0.000894,0.00298
0.5195,0,0.005364
0.52,0.004768,0.00447
0.5205,0.00298,0.003874
0.521,0.002086,0.000894
0.5215,0.004768,0.001192
0.522,0.002384,0.001788
0.5225,-0.002682,0.007451
0.523,-0.004768,0.008345
0.5235,-0.002682,0.005364
0.524,-0.001192,0.004768
0.5245,0.001788,0.003576
0.525,0.005662,0.002682
0.5255,0.00298,0.00149
0.526,-0.00298,0.008941
0.5265,0.003278,0.005662
0.527,0.002086,0.003874
0.5275,-0.001192,0.00298
0.528,0.003576,0.003576
0.5285,0.005662,0.003874
0.529,0.005662,0.005662
0.5295,0.004768,0.001192
0.53,0.004768,0
0.5305,0.00298,0
0.531,0.00447,0.00447
0.5315,0.006557,0.001788
0.532,0.00298,0.001192
0.5325,0.002384,0.002682
0.533,0.006258,0.002682
0.5335,0.006855,0.002086
0.534,0.005662,0.002384
0.5345,0.003278,0.001788
0.535,0.007749,0.001788
0.5355,0.005662,-0.000298
0.536,0.00596,-0.002086
0.5365,0.004172,0.001192
0.537,0.004768,0.003874
0.5375,0.009537,-0.000298
0.538,0.006557,0
0.5385,0.009239,-0.00298
0.539,0.004172,0.000894
0.5395,0.006258,0.003278
0.54,0.006258,0.007153
0.5405,0.006557,0.005364
0.541,0.009835,0.003576
0.5415,0.009239,0.00298
0.542,0.00596,0.00149
0.5425,0.000596,0.00447
0.543,0.001192,0.004768
0.5435,0,0.005662
0.544,0.002086,0.008643
0.5445,0.006855,0.006557
0.545,0.007451,0.00447
0.5455,0.011921,0.003874
0.546,0.007749,0.005066
0.5465,0.008345,0.005364
0.547,0.006258,-0.000596
0.5475,0.004172,0.00596
0.548,0.00298,0.007153
0.5485,0.008941,0.003576
0.549,0.007451,0.001788
0.5495,0.005662,0.007153
0.55,0.008047,0.009239
0.5505,0.009835,0.003278
0.551,0.008047,0.00447
0.5515,0.004768,0.004172
0.552,0.008345,0.004172
0.5525,0.007451,0.006557
0.553,0.00596,0.008345
0.5535,0.004172,0.005364
0.554,0.002384,0.005364
0.5545,0.003874,0.002384
0.555,0.003576,0.004768
0.5555,0.005662,0.005662
0.556,0.00447,0.007451
0.5565,0.008047,0.00298
0.557,0.007749,0.005066
0.5575,0.00447,0.003874
0.558,0.000894,0.004172
0.5585,0.001192,0.009537
0.559,0.00447,0.009835
0.5595,0.005662,0.007451
0.56,0.007749,0.005364
0.5605,0.001192,0.008941
0.561,-0.000298,0.009537
0.5615,0.000894,0.005662
0.562,0.00447,0.005662
0.5625,0.004768,0.005066
0.563,0.005662,0.00596
0.5635,0.007451,0.002384
0.564,0.003278,0.003874
0.5645,0.00298,0.007749
0.565,0.000894,0.00298
0.5655,0.003576,0.003874
0.566,0.004768,0.009239
0.5665,0.00298,0.006258
0.567,0.005066,0.006855
0.5675,0.007451,0.007153
0.568,0.008345,0.005662
0.5685,0.005662,0.002384
0.569,0.001192,0.002384
0.5695,0.003576,0.007451
0.57,0.005066,0.006557
0.5705,0.006855,0.003278
0.571,0.006557,0.002682
0.5715,0.007153,0.005662
0.572,0.007153,0.003874
0.5725,0.005066,0.006557
0.573,0.007451,0.006557
0.5735,0.006258,0.007451
0.574,0.00596,0.00149
0.5745,0.007749,0.002086
0.575,0.006258,0.002384
0.5755,0.008941,0.007451
0.576,0.008345,0.00298
0.5765,0.010133,0.001788
0.577,0.00298,0.00447
0.5775,0.00149,0.006258
0.578,0.009835,0.002086
0.5785,0.014305,0.001788
0.579,0.010133,0.00149
0.5795,0.010133,0.001192
0.58,0.010729,0.002086
0.5805,0.009239,-0.000596
0.581,0.009537,0.003874
0.5815,0.011027,0.007153
0.582,0.010431,0.007451
0.5825,0.009239,0.007451
0.583,0.007749,0.007153
0.5835,0.007153,0.007153
0.584,0.007749,0.005066
0.5845,0.005662,0.011325
0.585,0.005662,0.007749
0.5855,0.005662,0.007749
0.586,0.005662,0.011325
0.5865,0.004172,0.011325
0.587,0.009835,0.009835
0.5875,0.009537,0.010431
0.588,0.010133,0.005066
0.5885,0.009239,0.012219
0.589,0.009835,0.004768
0.5895,0.008345,0.002384
0.59,0.003576,0.009239
0.5905,0.004768,0.007153
0.591,0.005066,0.00447
0.5915,0.005662,0.008643
0.592,0.004172,0.009239
0.5925,0.00447,0.00447
0.593,0.000596,0.007153
0.5935,0.000894,0.008047
0.594,0.001192,0.008345
0.5945,0.001192,0.006855
0.595,0.003874,0.005066
0.5955,0.00447,0.008941
0.596,0.00298,0.008941
0.5965,0.00447,0.00596
0.597,-0.000298,0.008643
0.5975,0.000894,0.010729
0.598,0.00447,0.006557
0.5985,0.002682,0.00298
0.599,0.006258,0.002086
0.5995,0.009537,0.005662
0.6,0.003874,0.006258
0.6005,0.00298,0.003874
0.601,0.00149,0.005066
0.6015,0.002384,0.008941
0.602,0.003576,0.003874
0.6025,0.003874,0.000298
0.603,0.007451,0.00298
0.6035,0.007749,0.005066
0.604,0.005662,-0.001788
0.6045,0.004172,0.003576
0.605,0.005066,0.003576
0.6055,0.003874,0.002384
0.606,0.00596,0.005364
0.6065,0.000596,0.005364
0.607,0.003874,0.000298
0.6075,0.001192,0.005662
0.608,-0.00447,0.009239
0.6085,0.001788,0.006258
0.609,0.006258,0.003874
0.6095,0.001192,0.000894
0.61,0.003874,0.003576
0.6105,0.004768,0.004172
0.611,0.007451,-0.005066
0.6115,0.008047,-0.002384
0.612,0.011027,0.000596
0.6125,0.010431,0.006855
0.613,0.006258,0.004768
0.6135,0.00596,0.000596
0.614,0.006557,-0.000298
0.6145,0.008047,0.003874
0.615,0.008941,0.003874
0.6155,0.006557,0.000298
0.616,0.005662,-0.002682
0.6165,0.008941,-0.001192
0.617,0.007153,0.000298
0.6175,0.003576,0.002384
0.618,0.000298,0
0.6185,0.005066,0.003576
0.619,0.002682,0.00149
0.6195,0.002086,0.001192
0.62,0.006557,-0.000596
0.6205,0.005662,0.001788
0.621,0.00447,0.005662
0.6215,0.00298,0.003278
0.622,0.00596,-0.00149
0.6225,0.003278,0.000298
0.623,0.000298,0.004172
0.6235,0.005066,0.006258
0.624,0.003874,0.005066
0.6245,0.001192,0.001192
0.625,0.000894,0.004768
0.6255,0.003278,0.007749
0.626,0.005662,0.005066
0.6265,0.004768,0.007451
0.627,0.00447,0.006557
0.6275,0.00149,0.006258
0.628,0.005066,0.007451
0.6285,0.004172,0.006557
0.629,0.003278,0.006258
0.6295,0.002384,0.008643
0.63,0,0.010729
0.6305,0.004172,0.010729
0.631,0.00596,0.008941
0.6315,0.000894,0.00596
0.632,0,0.005662
0.6325,0.00298,0.008047
0.633,0.008941,0.007451
0.6335,0.009239,0.007749
0.634,0.001788,0.004768
0.6345,-0.001192,0.005364
0.635,0.00447,0.009537
0.6355,-0.004172,0.008941
0.636,-0.001788,0.007749
0.6365,0,0.008345
0.637,0.005066,0.003874
0.6375,0.004172,0.001788
0.638,0.003278,0.007749
0.6385,0.001192,0.008345
0.639,0.003576,0.004768
0.6395,0.00298,0.001788
0.64,0.003874,0.004172
0.6405,0.003874,0.003278
0.641,0.002682,0.003278
0.6415,0.004172,0.004768
0.642,0.007749,0.004768
0.6425,0.003576,0.002086
0.643,0.003576,0.003278
0.6435,0.004172,-0.000298
0.644,0.005364,0.002682
0.6445,0.006258,0.003576
0.645,0.005364,0.00149
0.6455,0.00447,-0.001192
0.646,0.003278,0.000596
0.6465,0.006557,0.003278
0.647,0.003874,0.008047
0.6475,0.00447,0.004768
0.648,0.007749,0.004172
0.6485,0.00447,0.005364
0.649,0.005662,-0.000298
0.6495,0.008345,0.002384
0.65,0.010133,0.008047
0.6505,0.006557,0.005364
0.651,0.00447,0.008047
0.6515,0.002384,0.008941
0.652,0.00298,0.008643
0.6525,0.00149,0.009537
0.653,0.002384,0.003874
0.6535,0.005066,0.001788
0.654,0.00447,0.006258
0.6545,0.001192,0.00298
0.655,0.004768,0.005662
0.6555,0.003576,0.008643
0.656,0.004768,0.008643
0.6565,0.000894,0.010133
0.657,0.003278,0.008941
0.6575,0.004172,0.005662
0.658,0.00298,0.007153
0.6585,-0.000596,0.008643
0.659,-0.00149,0.005662
0.6595,-0.000298,0.006258
0.66,0.001192,0.006557
0.6605,0.00447,0.007153
0.661,0.000596,0.005662
0.6615,-0.000298,0.00596
0.662,0.005066,0.003874
0.6625,0.003576,0.010431
0.663,-0.001192,0.009835
0.6635,-0.004172,0.00447
0.664,0.000298,0.008345
0.6645,-0.000596,0.007749
0.665,0.00149,0.006258
0.6655,-0.00149,0.00596
0.666,0.000894,0.00149
0.6665,0.001192,0.004172
0.667,0.003576,0.00596
0.6675,0.007153,0.006258
0.668,0.006557,0.002682
0.6685,0.007749,0.003278
0.669,0.003576,0.002086
0.6695,0.006557,0.002384
0.67,0.005066,0.00447
0.6705,0.007153,0.006855
0.671,0.003278,0.008345
0.6715,0.008047,0.002682
0.672,0.009239,0.00149
0.6725,0.002086,0.002682
0.673,0.00298,0.004172
0.6735,0.010133,0.001788
0.674,0.009835,0.006557
0.6745,0.004172,0.007749
0.675,0.00149,0.013113
0.6755,0.000298,0.012815
0.676,0.000596,0.008345
0.6765,-0.000298,0.005364
0.677,-0.00149,0.011623
0.6775,0.006557,0.008941
0.678,0.000894,0.006258
0.6785,0.002682,0.008047
0.679,0.00149,0.006855
0.6795,0.00596,0.00447
0.68,0.006855,0.008643
0.6805,0.007153,0.008643
0.681,0.006258,0.006258
0.6815,0.005662,0.008941
0.682,0.008047,0.010729
0.6825,0.007153,0.008345
0.683,0.005066,0.007153
0.6835,0.006557,0.007153
0.684,0.00447,0.008047
0.6845,0.005066,0.006557
0.685,0.008047,0.004768
0.6855,0.007153,0.012219
0.686,0.008941,0.012219
0.6865,0.00447,0.008643
0.687,0.006855,0.00596
0.6875,0.007153,0.005662
0.688,0.007451,0.007749
0.6885,0.004768,0.008047
0.689,0.009239,0.008643
0.6895,0.005364,0.014007
0.69,0.006258,0.010729
0.6905,0.000596,0.009835
0.691,0.005066,0.012517
0.6915,0.00596,0.009239
0.692,0.008047,0.008345
0.6925,0.002086,0.009835
0.693,0.002384,0.010729
0.6935,0.005364,0.009835
0.694,0.004172,0.008345
0.6945,0.004768,0.008941
0.695,0.007153,0.008941
0.6955,0.005364,0.007749
0.696,0.00298,0.008941
0.6965,0.002384,0.005364
0.697,0.00447,0.005364
0.6975,0.002384,0.003576
0.698,0.007153,0.007451
0.6985,0.007153,0.008345
0.699,0.008941,0.008643
0.6995,0.007153,0.007153
0.7,0.002086,0.010729
0.7005,0.000298,0.008643
0.701,0.005662,0.005662
0.7015,0.008643,0.006855
0.702,0.010133,0.009835
0.7025,0.007749,0.011325
0.703,0.003874,0.00596
0.7035,0.000894,0.009835
0.704,0.003576,0.008941
0.7045,0.00596,0.001788
0.705,0.007153,0.003278
0.7055,0.004768,0.004172
0.706,0.001788,0.000596
0.7065,0.00149,0.003874
0.707,0.007153,0.000894
0.7075,0.008345,0.000298
0.708,0.003576,0.001788
0.7085,0.003576,0.008047
0.709,0.00298,0.004768
0.7095,0.00447,0.008345
0.71,0.002384,0.007451
0.7105,0.00149,0.007153
0.711,0.000894,0.00596
0.7115,0.00298,0.007451
0.712,0.002682,0.003278
0.7125,0,0.000894
0.713,0.000298,-0.000894
0.7135,-0.00298,0.00149
0.714,0.002086,0.000894
0.7145,0.002384,0.002682
0.715,0.004768,0.001788
0.7155,0.005364,0.003576
0.716,0.003874,0.00447
0.7165,0.006258,0.00298
0.717,0.003576,0.00149
0.7175,0.004768,0.003874
0.718,0.00596,0.003874
0.7185,0.005662,0.005364
0.719,0.002384,0.002384
0.7195,-0.001788,0.008047
0.72,-0.000596,0.005066
0.7205,0.005364,0.007451
0.721,0.003874,0.001788
0.7215,0.005066,0.00149
0.722,0.00447,0.000894
0.7225,0.006258,0.003576
0.723,0.007153,0.003576
0.7235,0.006557,0.005364
0.724,0.006855,0.00447
0.7245,0.002384,0.000596
0.725,0.00447,0.000894
0.7255,0.007451,0.002682
0.726,0.005662,-0.002086
0.7265,0.004768,-0.000298
0.727,0.008047,0.000894
0.7275,0.009239,0.005066
0.728,0.010729,-0.001788
0.7285,0.012517,-0.003278
0.729,0.009835,-0.001788
0.7295,0.011623,0.001788
0.73,0.011027,0.001788
0.7305,0.008643,0.000298
0.731,0.006557,0.002682
0.7315,0.005364,0.001788
0.732,0.00596,0.000894
0.7325,0.005066,0.003576
0.733,0.008643,0.003874
0.7335,0.010431,0
0.734,0.008643,-0.001788
0.7345,0.010729,0.002384
0.735,0.006258,0.001788
0.7355,0.005662,0.005364
0.736,0.010133,0.005662
0.7365,0.010729,0.00298
0.737,0.00447,0.005066
0.7375,0.001192,0.001192
0.738,0.008345,0.002086
0.7385,0.005364,0.002682
0.739,0.001788,0.000596
0.7395,0.003874,0.000596
0.74,0.002086,0.001192
0.7405,0.003874,0.000298
0.741,0.002086,0.000596
0.7415,0.005364,0.000894
0.742,0.003576,0.000596
0.7425,0.00298,0.001192
0.743,0.006855,-0.00149
0.7435,0.006258,-0.002086
0.744,0.005662,-0.008941
0.7445,0.006557,-0.003576
0.745,0.00596,-0.000298
0.7455,0.00298,0.002682
0.746,0.003874,0.00149
0.7465,0.005364,0.000596
0.747,0.005662,0.001788
0.7475,0.008345,0.003576
0.748,0.004172,0.00149
0.7485,0.00149,0.000298
0.749,0.00149,0.00298
0.7495,0.000596,0.008345
0.75,0.000596,0.003278
0.7505,0.000894,0.000894
0.751,0.005066,0.000298
0.7515,0.003278,0.002086
0.752,0.001788,0.003874
0.7525,0.002682,0.001788
0.753,0.002086,0.004768
0.7535,0.002384,0.007749
0.754,-0.002086,0.007451
0.7545,0.001192,0
0.755,0.003874,0.002384
0.7555,0.001192,0.002384
0.756,0.002086,-0.000894
0.7565,0.002384,0.000894
0.757,-0.002682,0.002384
0.7575,-0.000298,0.00447
0.758,0.002682,0.004768
0.7585,0.009537,0.00298
0.759,0.011921,-0.001192
0.7595,0.007749,0.000298
0.76,0.00298,0.000894
0.7605,0.000298,0.003576
0.761,0.002086,0.009537
0.7615,-0.00149,0.007451
0.762,0,0.001788
0.7625,0.003278,0.003278
0.763,0.001192,0.00149
0.7635,0.002086,-0.00149
0.764,0.004172,0.003874
0.7645,0.000298,0.000894
0.765,-0.001192,0.008047
0.7655,-0.000894,0.007153
0.766,-0.001192,0.000894
0.7665,0.004172,0.002682
0.767,0.005364,0.00149
0.7675,0.002682,-0.003576
0.768,0,-0.002384
0.7685,0.004172,0.004172
0.769,0.006855,0.005662
0.7695,0.008345,0.007153
0.77,0.009537,0.00298
0.7705,0.003278,0.002086
0.771,0.003278,0.006557
0.7715,0.004172,0.009537
0.772,-0.000894,0.014603
0.7725,0.00149,0.012219
0.773,0.00298,0.009537
0.7735,-0.000298,0.008941
0.774,0.000596,0.010133
0.7745,0.00447,0.007451
0.775,0.003576,0.007153
0.7755,-0.000298,0.008047
0.776,0.002384,0.007153
0.7765,0.002682,0.005066
0.777,0.006855,0.003576
0.7775,0.006258,0.004172
0.778,0.00596,0.001788
0.7785,0.005364,0.006557
0.779,0.002086,0.008047
0.7795,0.003278,0.006855
0.78,0.00149,0.00447
0.7805,0.00149,0.010729
0.781,0,0.005364
0.7815,0.002682,0.007749
0.782,-0.000596,0.002384
0.7825,0.000894,0.000298
0.783,0.00447,0.002384
0.7835,0.003874,0.003874
0.784,0.00447,0.006258
0.7845,0.001192,0.007451
0.785,0.002384,0.006855
0.7855,0.00149,0.008643
0.786,0.00298,0.009537
0.7865,0.008643,0.005364
0.787,0.00596,0.000894
0.7875,0.005066,0.003874
0.788,0.005662,0.003278
0.7885,0.002086,0.005662
0.789,0.00447,0.005066
0.7895,0.005364,0.005066
0.79,0.008345,0.005364
0.7905,0.006258,0.002682
0.791,0.00596,-0.000298
0.7915,0.005364,0.001788
0.792,0.006258,0.00298
0.7925,0.00596,0.004768
0.793,0.005662,0.007451
0.7935,0.004768,0.00447
0.794,0.00298,0.004172
0.7945,0.000894,0.003874
0.795,0.00596,-0.000894
0.7955,0.008047,-0.000894
0.796,0.005066,0.005364
0.7965,0.006557,0.006557
0.797,0.003576,0.003278
0.7975,0.002086,0.007153
0.798,-0.000298,0.006557
0.7985,0.002682,0.008941
0.799,0.002384,0.005662
0.7995,0.007451,-0.000298
0.8,0.00596,0.005066
0.8005,0.009239,0.005066
0.801,0.008345,0.002682
0.8015,0.008941,0.002682
0.802,0.010431,0
0.8025,0.010133,0.001788
0.803,0.008941,0.000894
0.8035,0.005662,-0.002086
0.804,0.006258,0.006557
0.8045,0.001788,0.004172
0.805,0.003278,0.002682
0.8055,0.008047,0.008345
0.806,0.005662,0.008345
0.8065,0.002384,0.007153
0.807,-0.001788,0.006557
0.8075,0.002682,0.008941
0.808,0.001192,0.003874
0.8085,0.009835,-0.000596
0.809,0.007749,0.00149
0.8095,0.004768,0.00447
0.81,0.00447,0.001192
0.8105,0.009239,0.005066
0.811,0.007451,0.005662
0.8115,0.009835,0.00447
0.812,0.009239,0.006258
0.8125,0.003874,0.011027
0.813,0.005066,0.011325
0.8135,0.011921,0.007749
0.814,0.009835,0.002682
0.8145,0.001788,0.005662
0.815,0.005662,0.002086
0.8155,0.00596,0.002682
0.816,0.004172,0.002682
0.8165,0.005662,0.004172
0.817,0.003576,0.005364
0.8175,-0.000298,0.007749
0.818,-0.000298,0.007749
0.8185,0.004172,0.007451
0.819,0.006258,0.008345
0.8195,0.003278,0.008941
0.82,0.000298,0.008047
0.8205,0.001788,0.005662
0.821,0.005066,0.005662
0.8215,0.005662,0.005364
0.822,0.000298,0.005364
0.8225,0.00149,0.005066
0.823,0.003874,0.010133
0.8235,0.002384,0.010133
0.824,-0.003278,0.009239
0.8245,-0.000894,0.009835
0.825,0.002682,0.004172
0.8255,0.008047,0.00149
0.826,0.006855,0.005662
0.8265,0.004172,0.000298
0.827,0.009537,0.001192
0.8275,0.012517,0.003576
0.828,0.005364,-0.000596
0.8285,0.005364,-0.003874
0.829,0.005364,0.005662
0.8295,0.006855,0.009239
0.83,0.007451,0.002682
0.8305,0.00149,0.003278
0.831,0.000298,0.005364
0.8315,0.003874,0.007153
0.832,0.001788,0.008345
0.8325,0.005662,0.005066
0.833,0.00596,0.008643
0.8335,0.003278,0.006855
0.834,0.001788,0.005662
0.8345,0.00298,0.00298
0.835,0.005364,0.002682
0.8355,0.003278,0.006258
0.836,0,0.00596
0.8365,0.003874,0.002086
0.837,0,0.007153
0.8375,-0.000298,0.006855
0.838,0.002682,0.005066
0.8385,-0.000298,0.002682
0.839,0.002384,0.006258
0.8395,-0.002384,0.004768
0.84,-0.001192,0.006258
0.8405,0.004172,0.008345
0.841,0.006557,0.004172
0.8415,0.004768,0.001788
0.842,0.003576,-0.001788
0.8425,0.003874,-0.004768
0.843,0.006855,0.003576
0.8435,0.00596,0.003874
0.844,0.002086,0.000298
0.8445,0.005066,0.003874
0.845,0.008643,0.001192
0.8455,0.002086,0.004768
0.846,0.00447,0.002682
0.8465,0.00447,0.005662
0.847,0.006258,0.00298
0.8475,0.003278,-0.000596
0.848,0.003278,0.004768
0.8485,0.003576,-0.000894
0.849,0.00596,0.00447
0.8495,0.006557,0.009239
0.85,0.002086,0.011325
0.8505,0.001192,0.011027
0.851,0.002384,0.008047
0.8515,0.002384,0.010729
0.852,0.008643,0.007451
0.8525,0.004768,0.006258
0.853,0.000596,0.006258
0.8535,0.006557,0
0.854,0.008941,-0.00149
0.8545,0.006258,0.000298
0.855,0.004768,0.00298
0.8555,-0.000596,0.002682
0.856,0.001788,-0.002682
0.8565,0.005662,-0.001788
0.857,0.00596,-0.006258
0.8575,0.006557,-0.008047
0.858,0.006855,-0.009239
0.8585,0.008643,-0.002086
0.859,0.011027,0.001788
0.8595,0.006855,-0.002086
0.86,0.006557,-0.00596
0.8605,0.009537,-0.003278
0.861,0.008345,0.000298
0.8615,0.007749,-0.00149
0.862,0.005066,0.004172
0.8625,0.002384,0.00596
0.863,0.002086,0.006557
0.8635,0.002086,0.008047
0.864,0.00447,0.00149
0.8645,0.006557,0.010729
0.865,0.001192,0.007153
0.8655,0.000894,0.007451
0.866,0,0.007153
0.8665,0.003278,0.007153
0.867,0.005066,0.009537
0.8675,0.001788,0.010133
0.868,0.002086,0.011921
0.8685,0.002384,0.011027
0.869,0.00447,0.010431
0.8695,0.005066,0.005066
0.87,0.008643,0.00447
0.8705,0.010133,0.004768
0.871,0.005364,0.003874
0.8715,0.004172,0.013709
0.872,0.005066,0.011027
0.8725,0.006258,0.015497
0.873,0.003278,0.016391
0.8735,0.002384,0.015795
0.874,0.007749,0.018775
0.8745,0.009537,0.0301
0.875,0.011027,0.035465
0.8755,0.008345,0.039041
0.876,0.006855,0.04679
0.8765,0.000894,0.046492
0.877,0.000596,0.031292
0.8775,0.002086,0.015497
0.878,0.002682,-0.00298
0.8785,0.002682,-0.009537
0.879,0.006855,-0.016689
0.8795,0.007153,-0.026524
0.88,0.007451,-0.029802
0.8805,0.006855,-0.023246
0.881,-0.000298,-0.018775
0.8815,0.002384,-0.003278
0.882,0.000298,0.006557
0.8825,-0.000894,0.006258
0.883,0.005066,0.005066
0.8835,0.00298,-0.004172
0.884,0.001788,-0.022054
0.8845,0.00298,-0.025928
0.885,-0.005662,-0.015199
0.8855,0,-0.006855
0.886,0.010133,0
0.8865,0.008047,0
0.887,0.006258,-0.004172
0.8875,0.006557,-0.001788
0.888,0.007153,0.002384
0.8885,0.010133,0.00149
0.889,0.00596,-0.00149
0.8895,0.006855,0.003576
0.89,0.00596,0.005066
0.8905,0.004768,0.011027
0.891,0.006258,0.014007
0.8915,0.007749,0.017583
0.892,0.007749,0.024438
0.8925,0.010133,0.036359
0.893,0.006557,0.049174
0.8935,0.001788,0.060201
0.894,0.00149,0.065863
0.8945,0.001192,0.065267
0.895,0.001788,0.053644
0.8955,-0.003576,0.042915
0.896,-0.001192,0.039041
0.8965,-0.001788,0.038147
0.897,0.000298,0.027418
0.8975,0,0.013411
0.898,-0.002086,0.004172
0.8985,-0.000298,-0.008047
0.899,0.00298,-0.019372
0.8995,0.000596,-0.026822
0.9,-0.000596,-0.040531
0.9005,0.003278,-0.056326
0.901,0.008345,-0.067651
0.9015,0.011325,-0.069141
0.902,0.011027,-0.064671
0.9025,0.009239,-0.053346
0.903,0.010431,-0.038743
0.9035,0.013411,-0.026822
0.904,0.013709,-0.02116
0.9045,0.010431,-0.018179
0.905,0.014901,-0.02265
0.9055,0.013411,-0.011325
0.906,0.012219,-0.000894
0.9065,0.012219,0.004172
0.907,0.008345,0.007153
0.9075,0.00596,0.006557
0.908,0.007153,0.005662
0.9085,0.009239,0.00447
0.909,0.008047,0.010431
0.9095,0.000596,0.016093
0.91,0,0.012219
0.9105,-0.00149,0.005662
0.911,0.007451,0.002682
0.9115,0.008643,0
0.912,0.006557,0.00149
0.9125,0.008643,-0.002086
0.913,0.009537,-0.00298
0.9135,0.008047,0.005662
0.914,0.009239,0.008047
0.9145,0.005662,0.005662
0.915,0.007153,0.004768
0.9155,0.007153,0.001192
0.916,0.002682,0.006557
0.9165,0.005662,0.011921
0.917,0.006258,0.020564
0.9175,0.003278,0.021756
0.918,-0.000596,0.026226
0.9185,-0.001192,0.030398
0.919,-0.002086,0.034869
0.9195,-0.006855,0.024736
0.92,-0.010133,0.010431
0.9205,-0.006258,0.004768
0.921,-0.007451,-0.00298
0.9215,0.001192,0.014901
0.922,0.00298,0.061691
0.9225,0.002384,0.103712
0.923,0.003874,0.126362
0.9235,0.009835,0.109076
0.924,0.014901,0.079572
0.9245,0.009239,0.062883
0.925,0.005662,0.045896
0.9255,0.003576,0.023842
0.926,0.00298,-0.000298
0.9265,-0.002086,-0.023544
0.927,0.004172,-0.042319
0.9275,0.011027,-0.066161
0.928,0.012219,-0.078976
0.9285,0.00596,-0.083745
0.929,0.008345,-0.071228
0.9295,0.010729,-0.060201
0.93,0.003278,-0.049174
0.9305,0.00298,-0.046492
0.931,0.009537,-0.050962
0.9315,0.012219,-0.039041
0.932,0.012517,-0.022352
0.9325,0.011325,-0.018179
0.933,0.014305,-0.030696
0.9335,0.017285,-0.050068
0.934,0.013113,-0.053346
0.9345,0.008345,-0.034571
0.935,0.007749,-0.016093
0.9355,0.008345,-0.00596
0.936,-0.003278,0.00596
0.9365,-0.011921,0.021458
0.937,-0.012517,0.041425
0.9375,0.000298,0.051558
0.938,0.006258,0.063777
0.9385,0.011027,0.092089
0.939,0.029504,0.109375
0.9395,0.04977,0.100732
0.94,0.046194,0.077188
0.9405,0.026822,0.05722
0.941,0.018477,0.044703
0.9415,0.015199,0.021458
0.942,0.015497,-0.03159
0.9425,0.014305,-0.064373
0.943,0.003874,-0.028908
0.9435,-0.016093,0.005662
0.944,-0.030398,-0.000596
0.9445,-0.026524,-0.023842
0.945,-0.003576,-0.032187
0.9455,0.014305,-0.008941
0.946,0.014603,0.025332
0.9465,0.00596,0.058711
0.947,-0.008345,0.077486
0.9475,-0.018775,0.088513
0.948,-0.017881,0.097454
0.9485,-0.009537,0.083148
0.949,0.001192,0.047982
0.9495,0.005662,0.026822
0.95,0.001788,0.008643
0.9505,0.010431,0.002682
0.951,0.008047,-0.003874
0.9515,0.00596,-0.002086
0.952,-0.013411,0.00298
0.9525,-0.050664,0.002682
0.953,-0.053644,-0.008941
0.9535,-0.014305,-0.018179
0.954,0.034869,-0.02414
0.9545,0.065565,-0.046492
0.955,0.073314,-0.067651
0.9555,0.041127,-0.054538
0.956,0.008047,-0.04679
0.9565,-0.012517,-0.071824
0.957,-0.009835,-0.100732
0.9575,0.012219,-0.083447
0.958,0.022352,-0.046492
0.9585,0.015795,-0.002384
0.959,-0.010133,0.066757
0.9595,-0.027716,0.110567
0.96,-0.021756,0.112355
0.9605,-0.012517,0.07987
0.961,-0.008047,0.050068
0.9615,-0.010133,0.033975
0.962,-0.008941,0.028312
0.9625,-0.008345,0.02265
0.963,-0.007749,0.009239
0.9635,-0.00447,-0.010133
0.964,-0.002384,-0.020862
0.9645,-0.002384,-0.029206
0.965,-0.006855,-0.036657
0.9655,0.005662,-0.05424
0.966,0.017583,-0.08285
0.9665,0.029504,-0.118613
0.967,0.045002,-0.119805
0.9675,0.063777,-0.095665
0.968,0.069141,-0.05424
0.9685,0.054836,-0.036955
0.969,0.043809,-0.020564
0.9695,0.043213,-0.009537
0.97,0.044703,-0.002384
0.9705,0.033677,-0.002384
0.971,0.003576,0.007153
0.9715,-0.035465,0.011325
0.972,-0.032187,0.010729
0.9725,-0.006258,0.005662
0.973,0,0.008941
0.9735,0.014305,0.013709
0.974,0.043809,0.009835
0.9745,0.036955,0.013113
0.975,0.004172,0.018775
0.9755,-0.035167,0.013113
0.976,-0.042021,0.011027
0.9765,-0.028908,0.007153
0.977,-0.034869,0.006855
0.9775,-0.047386,0.008643
0.978,-0.041425,0.008643
0.9785,-0.034571,0.003874
0.979,-0.033975,-0.005066
0.9795,-0.038445,-0.006258
0.98,-0.053644,-0.004768
0.9805,-0.04977,-0.006855
0.981,-0.040531,-0.004172
0.9815,-0.048876,0.00596
0.982,-0.093281,0.01967
0.9825,-0.142455,0.032783
0.983,-0.143945,0.033081
0.9835,-0.074208,0.039041
0.984,0.025928,0.0453
0.9845,0.079274,0.039339
0.985,0.023246,0.037849
0.9855,-0.04679,0.069439
0.986,-0.031888,0.067055
0.9865,0.006258,0.056326
0.987,0.025928,0.042915
0.9875,0.043511,0.048578
0.988,0.029206,0.078678
0.9885,0.002086,0.08136
0.989,0.007749,0.061095
0.9895,0.046492,0.036061
0.99,0.057817,0.021756
0.9905,0.022352,-0.00298
0.991,-0.030696,-0.0301
0.9915,-0.029206,-0.04977
0.992,0.093877,-0.062883
0.9925,0.192523,-0.055134
0.993,0.196099,-0.032783
0.9935,0.171065,-0.006557
0.994,0.169277,-0.001788
0.9945,0.133812,-0.024736
0.995,0.075996,-0.031292
0.9955,0.017285,-0.02861
0.996,0.010133,-0.032485
0.9965,0.045598,-0.042617
0.997,0.047386,-0.027418
0.9975,0.02265,-0.000894
0.998,0.006258,0.020266
0.9985,0.010729,0.033975
0.999,0.003278,0.039041
0.9995,-0.009239,0.039637
1,-0.01967,0.047088
1.0005,-0.013411,0.050068
1.001,0.003874,0.05126
1.0015,0.010431,0.056624
1.002,-0.00149,0.057518
1.0025,-0.02563,0.051558
1.003,-0.02563,0.039041
1.0035,-0.010133,0.03159
1.004,0.001192,0.019968
1.0045,-0.013411,0.012517
1.005,-0.021458,-0.003576
1.0055,-0.033975,-0.014603
1.006,-0.049472,-0.019372
1.0065,-0.053048,-0.025928
1.007,-0.041127,-0.038743
1.0075,-0.030696,-0.052452
1.008,-0.024736,-0.04977
1.0085,-0.020266,-0.021756
1.009,-0.022948,-0.003576
1.0095,-0.02563,0.008047
1.01,-0.023246,0.005364
1.0105,-0.006855,0.009239
1.011,0.011325,0.010729
1.0115,0.028908,0.007749
1.012,0.021756,0
1.0125,0.007749,-0.00596
1.013,-0.003278,0.001192
1.0135,-0.007749,0.003576
1.014,-0.00149,0.003278
1.0145,-0.002384,0.005066
1.015,0.000298,0.001192
1.0155,-0.000894,0.00447
1.016,0.001192,0.003874
1.0165,0,0.00447
1.017,-0.002384,0.00298
1.0175,0.003874,-0.000298
1.018,0.00149,-0.000894
1.0185,-0.001788,0.003576
1.019,-0.007451,0.005364
1.0195,0,0.002682
1.02,0.005364,-0.003278
1.0205,0.004768,-0.004172
1.021,0.003874,-0.00149
1.0215,0.007451,-0.000596
1.022,0.008941,-0.002384
1.0225,0.005662,-0.000596
1.023,0.003278,0.000298
1.0235,0.003874,-0.00149
1.024,0.003278,0.003278
1.0245,0.003278,0.003278
1.025,0.002682,0.005662
1.0255,-0.000596,0.004768
1.026,-0.010133,0.003874
1.0265,-0.015795,0.014007
1.027,-0.019968,0.019073
1.0275,-0.020564,0.014305
1.028,-0.020266,0.016391
1.0285,-0.00447,0.006557
1.029,0.006258,-0.00596
1.0295,0.008643,-0.007451
1.03,0.010729,-0.006258
1.0305,0.012517,-0.00298
1.031,0.008345,-0.000894
1.0315,0.001788,-0.00149
1.032,-0.004172,0.000298
1.0325,-0.006258,0.003874
1.033,-0.008941,0.008047
1.0335,-0.010133,0.010431
1.034,-0.011623,0.016689
1.0345,-0.006258,0.016987
1.035,0.012517,0.016689
1.0355,0.032187,0.016689
1.036,0.038147,0.01967
1.0365,0.028014,0.026226
1.037,0.016093,0.026524
1.0375,0.007749,0.019968
1.038,0.00298,0.016093
1.0385,-0.00298,0.004768
1.039,-0.020862,-0.006557
1.0395,-0.039339,-0.016391
1.04,-0.0453,-0.017881
1.0405,-0.049174,-0.014603
1.041,-0.047684,-0.010431
1.0415,-0.008047,-0.007451
1.042,0.056326,-0.002086
1.0425,0.073314,0.000596
1.043,0.010133,0.00298
1.0435,-0.030696,0.009835
1.044,-0.02414,0.015497
1.0445,-0.009835,0.011921
1.045,0.001192,0.012815
1.0455,0.015795,0.015497
1.046,0.016689,0.014901
1.0465,0.023246,0.020862
1.047,0.036657,0.023246
1.0475,0.033677,0.02265
1.048,0.023544,0.015199
1.0485,0.016987,0.002384
1.049,0.007451,-0.009239
1.0495,0.002086,-0.008345
1.05,0.007451,-0.014603
1.0505,0.012219,-0.018477
1.051,0.012219,-0.017881
1.0515,0.010729,-0.013709
1.052,0.008643,-0.003576
1.0525,0.004768,0.005364
1.053,0.004172,0.015497
1.0535,0.003278,0.02116
1.054,-0.00447,0.020862
1.0545,-0.00596,0.026226
1.055,-0.012219,0.026524
1.0555,-0.015497,0.023544
1.056,-0.014603,0.022352
1.0565,-0.015199,0.030696
1.057,-0.018179,0.039041
1.0575,-0.028312,0.039339
1.058,-0.033081,0.026822
1.0585,-0.019073,0.018775
1.059,0.005066,0.014901
1.0595,0.016093,0.005364
1.06,0.018179,-0.008345
1.0605,0.024736,-0.019968
1.061,0.02712,-0.017285
1.0615,0.02563,-0.006258
1.062,0.025332,-0.002086
1.0625,0.033677,-0.003576
1.063,0.045002,-0.002384
1.0635,0.064671,-0.010431
1.064,0.063479,-0.017881
1.0645,0.043213,-0.028312
1.065,0.027418,-0.032783
1.0655,0.02414,-0.036359
1.066,0.02116,-0.030696
1.0665,0.012517,-0.030398
1.067,0.008643,-0.028908
1.0675,0.014305,-0.02712
1.068,0.016391,-0.020266
1.0685,0.014305,-0.013709
1.069,0.011921,-0.008047
1.0695,0.007153,-0.001788
1.07,0.010729,-0.005364
1.0705,0.010431,-0.003278
1.071,0.013411,-0.001192
1.0715,0.021458,-0.00447
1.072,0.020266,-0.003576
1.0725,0.020862,-0.00149
1.073,0.013113,-0.000894
1.0735,0.005364,0.008047
1.074,-0.003576,0.016093
1.0745,-0.009239,0.028312
1.075,-0.007153,0.029802
1.0755,0.000298,0.033081
1.076,-0.004172,0.030994
1.0765,-0.003874,0.033975
1.077,0.005066,0.027418
1.0775,0.016391,0.020266
1.078,0.034571,0.030696
1.0785,0.038445,0.044703
1.079,0.02265,0.045896
1.0795,-0.003278,0.037253
1.08,-0.02414,0.031888
1.0805,-0.013709,0.028908
1.081,-0.015199,0.02861
1.0815,-0.050366,0.030696
1.082,-0.073314,0.039935
1.0825,-0.078976,0.046492
1.083,-0.07689,0.033081
1.0835,-0.051856,-0.002086
1.084,-0.015795,-0.0301
1.0845,0.034273,-0.032485
1.085,0.05126,-0.031292
1.0855,0.05573,-0.041127
1.086,0.059605,-0.064075
1.0865,0.056624,-0.090301
1.087,0.031888,-0.091791
1.0875,-0.023246,-0.0754
1.088,-0.067353,-0.053346
1.0885,-0.062883,-0.025928
1.089,-0.005066,0.000596
1.0895,0.075698,0.007153
1.09,0.116825,0.017583
1.0905,0.098944,0.009835
1.091,0.040531,0.027716
1.0915,-0.004172,0.063181
1.092,-0.018775,0.061095
1.0925,-0.019073,0.025034
1.093,-0.055134,-0.003278
1.0935,-0.097454,-0.028908
1.094,-0.085533,-0.039935
1.0945,-0.030696,-0.02414
1.095,0.001192,0.00447
1.0955,0.035167,0.024736
1.096,0.112057,0.034869
1.0965,0.134408,0.051558
1.097,0.095963,0.043213
1.0975,0.02861,0.02116
1.098,-0.042319,0.002384
1.0985,-0.043213,-0.007451
1.099,-0.001788,-0.003874
1.0995,0.02563,0.010729
1.1,0.010431,0.015497
1.1005,-0.048578,0.008643
1.101,-0.081658,0.000596
1.1015,0.012219,0.000596
1.102,0.087023,0.004768
1.1025,0.086427,-0.000298
1.103,0.047386,0.003576
1.1035,0.015199,0.014305
1.104,-0.005066,0.017583
1.1045,-0.009239,0.020266
1.105,-0.002682,0.020862
1.1055,0.012517,0.018775
1.106,0.022948,0.013709
1.1065,0.016391,0.014007
1.107,0.014603,0.009835
1.1075,0.011623,0.011623
1.108,0.012219,0.010431
1.1085,0.008941,0.008345
1.109,-0.006258,0.015795
1.1095,-0.003874,0.019968
1.11,0.008941,0.017285
1.1105,0.010431,0.012815
1.111,-0.00447,0.011027
1.1115,-0.008047,0.009239
1.112,-0.012517,0.009835
1.1125,-0.014007,0.017285
1.113,-0.012815,0.016689
1.1135,-0.011325,0.011325
1.114,-0.014305,0.012517
1.1145,-0.013411,0.013411
1.115,-0.005066,0.011921
1.1155,-0.006855,0.009239
1.116,-0.002086,0.005662
1.1165,0.006258,0.006557
1.117,0.00447,0.007153
1.1175,0.002682,0.010729
1.118,0,0.008345
1.1185,0.00149,0.007749
1.119,0.000298,0.005364
1.1195,-0.003278,0.006557
1.12,-0.003576,0.007749
1.1205,-0.001192,0.007153
1.121,0.00447,0.00298
1.1215,0.008345,0.001788
1.122,0.009537,-0.003278
1.1225,0.007749,-0.004172
1.123,0.003874,-0.006855
1.1235,0.004172,-0.002682
1.124,0.000894,-0.00149
1.1245,0.006258,0.003278
1.125,0.005066,0.00298
1.1255,-0.00149,-0.000894
1.126,-0.00447,-0.000298
1.1265,0.005066,-0.002384
1.127,0.014603,-0.011325
1.1275,0.013411,-0.013709
1.128,0.010729,-0.007153
1.1285,0.008345,-0.004768
1.129,0.008643,-0.000596
1.1295,0.010729,0.00149
1.13,0.013709,0.002086
1.1305,0.000894,0.005662
1.131,-0.013709,0.013113
1.1315,-0.007153,0.016689
1.132,-0.002086,0.014603
1.1325,0.005662,0.007153
1.133,0.007749,0.005662
1.1335,0.002384,0.008941
1.134,-0.002682,0.012517
1.1345,-0.002682,0.011325
1.135,0.000298,0.014901
1.1355,0.002086,0.019372
1.136,0.000298,0.02414
1.1365,0.001192,0.01967
1.137,0.009239,0.013709
1.1375,0.015199,0.005364
1.138,0.014007,0.009239
1.1385,0.011027,0.012219
1.139,0.009537,0.008047
1.1395,0.011325,0.007749
1.14,0.014305,0.007749
1.1405,0.019372,0.00596
1.141,0.018775,-0.000596
1.1415,0.011921,-0.000298
1.142,0.014305,-0.000298
1.1425,0.010133,-0.002384
1.143,0.007749,0.002682
1.1435,0.005066,0.003874
1.144,0.000596,0.009537
1.1445,0.00298,0.011027
1.145,-0.001788,0.005662
1.1455,0.000298,0.005066
1.146,0.000298,0.001788
1.1465,0.00298,0.004172
1.147,0.003576,0.00447
1.1475,0.002682,0.00447
1.148,-0.000596,0.008345
1.1485,0.004172,0.004768
1.149,0.009537,0.004172
1.1495,0.003874,0.009537
1.15,0.00447,0.00149
1.1505,0.012815,0.003874
1.151,0.019073,0.012517
1.1515,0.013113,0.021756
1.152,0.010133,0.018775
1.1525,0.014603,0.011027
1.153,0.014603,0.004768
1.1535,0.014901,-0.001788
1.154,0.005066,-0.004768
1.1545,0.008941,-0.011921
1.155,0.014007,-0.008643
1.1555,0.017881,0.003278
1.156,0.013411,0.032783
1.1565,0.00298,0.056326
1.157,-0.004172,0.05275
1.1575,-0.014603,0.047684
1.158,-0.020862,0.041425
1.1585,-0.016391,0.027716
1.159,-0.009239,0.013709
1.1595,-0.009835,0.013411
1.16,-0.008345,0.025332
1.1605,-0.006557,0.029206
1.161,-0.002682,0.02414
1.1615,-0.00447,0.029206
1.162,-0.00596,0.028908
1.1625,-0.010729,0.012517
1.163,0.003576,-0.010431
1.1635,0.02414,-0.022054
1.164,0.028312,-0.016987
1.1645,0.022054,-0.013113
1.165,0.018179,-0.024438
1.1655,0.020564,-0.033975
1.166,0.016093,-0.024736
1.1665,0.006557,-0.018775
1.167,0.005364,-0.019372
1.1675,0.010729,-0.015497
1.168,0.007451,-0.02712
1.1685,0.00298,-0.045896
1.169,0.008345,-0.056028
1.1695,0.013411,-0.056624
1.17,0.012517,-0.053048
1.1705,0.008047,-0.039637
1.171,0.007153,-0.024736
1.1715,0.00298,-0.014603
1.172,0.008047,-0.010133
1.1725,0.006258,-0.008047
1.173,0.005364,0
1.1735,0.005066,0.008643
1.174,0.004768,0.00447
1.1745,0.006557,-0.001192
1.175,0.011325,-0.000298
1.1755,0.007749,0.006258
1.176,0.002384,0.009239
1.1765,0.009835,0.004172
1.177,0.016093,-0.006557
1.1775,0.012517,-0.008047
1.178,0.008345,0.001788
1.1785,0.006557,0.006557
1.179,0.003278,0.00596
1.1795,-0.000596,0.007749
1.18,0.003576,-0.003576
1.1805,0.003874,-0.000298
1.181,0.000596,0.000596
1.1815,0.002384,0.000894
1.182,0.003874,0.002682
1.1825,0.009835,0.001788
1.183,0.009239,-0.000298
1.1835,0.010133,-0.002086
1.184,0.009537,0.00149
1.1845,0.014007,0.001788
1.185,0.019073,0.001192
1.1855,0.012517,0.006258
1.186,0.00298,0.018179
1.1865,0.000596,0.022352
1.187,0.003576,0.02116
1.1875,0.000894,0.024736
1.188,-0.00447,0.023842
1.1885,-0.003278,0.027418
1.189,-0.000596,0.031292
1.1895,-0.00596,0.034869
1.19,-0.003874,0.030398
1.1905,-0.000894,0.029504
1.191,0.002384,0.029504
1.1915,0.006557,0.020266
1.192,0.006258,0.004768
1.1925,0.001192,-0.003576
1.193,-0.004768,-0.007153
1.1935,-0.002682,-0.013709
1.194,0.002384,-0.010431
1.1945,0.009835,-0.009835
1.195,0.011623,-0.007451
1.1955,0.008941,-0.000596
1.196,0.005364,0.012219
1.1965,0.009537,0.020266
1.197,0.000894,0.016689
1.1975,-0.013411,0.015497
1.198,-0.02265,0.017881
1.1985,-0.032485,0.017583
1.199,-0.02712,0.015795
1.1995,-0.02414,0.015199
1.2,-0.023842,0.012517
1.2005,-0.019968,0
1.201,0.025928,-0.009239
1.2015,0.109673,-0.014603
1.202,0.142753,-0.017583
1.2025,0.083447,-0.014901
1.203,0.012815,-0.009239
1.2035,-0.018477,-0.008643
1.204,-0.022054,-0.011027
1.2045,-0.026226,-0.013411
1.205,-0.028908,0.000596
1.2055,-0.020862,0.012517
1.206,-0.008047,0.013411
1.2065,-0.003278,-0.000894
1.207,0.008941,-0.008941
1.2075,0.017285,-0.021458
1.208,0.024438,-0.02414
1.2085,0.037253,-0.018477
1.209,0.038445,-0.006557
1.2095,0.03159,0.002384
1.21,0.011623,0.004172
1.2105,-0.011623,-0.004768
1.211,-0.004768,-0.011027
1.2115,0.002682,-0.004172
1.212,0.007451,0.003278
1.2125,-0.012815,0.007749
1.213,-0.034571,0.011325
1.2135,-0.060797,0.038147
1.214,-0.063777,0.063181
1.2145,-0.040233,0.079274
1.215,-0.016391,0.07093
1.2155,0.008047,0.065863
1.216,0.04828,0.056326
1.2165,0.07242,0.043809
1.217,0.07689,0.031292
1.2175,0.08285,0.012517
1.218,0.105202,-0.00298
1.2185,0.107586,-0.019372
1.219,0.073314,-0.027418
1.2195,0.007153,-0.023842
1.22,-0.047386,-0.016987
1.2205,-0.05126,-0.004172
1.221,-0.017583,-0.005364
1.2215,0.015199,-0.010729
1.222,0.028014,-0.023842
1.2225,0.028312,-0.039339
1.223,0.017881,-0.054836
1.2235,0.005364,-0.048876
1.224,0,-0.036955
1.2245,-0.00596,-0.02712
1.225,-0.00149,-0.005066
1.2255,-0.008345,0.015199
1.226,-0.008643,0.019073
1.2265,-0.00298,0.013113
1.227,0.00298,0.008345
1.2275,-0.000298,0.012219
1.228,-0.007749,0.028908
1.2285,-0.007749,0.043511
1.229,-0.002086,0.039637
1.2295,0.005066,0.02265
1.23,0.000596,0.012219
1.2305,0.002086,0.018775
1.231,-0.002384,0.026822
1.2315,-0.003874,0.031292
1.232,-0.00298,0.028014
1.2325,0.001788,0.031888
1.233,-0.008047,0.026822
1.2335,-0.016987,0.018775
1.234,-0.027418,0.005066
1.2345,-0.029206,-0.003874
1.235,-0.012815,-0.000298
1.2355,0.002682,-0.006258
1.236,0.008345,-0.018775
1.2365,0.003576,-0.010729
1.237,-0.003278,0.026822
1.2375,0.00298,0.05722
1.238,0.003874,0.061691
1.2385,-0.005662,0.063777
1.239,-0.007153,0.067353
1.2395,-0.000894,0.061095
1.24,0.00447,0.041723
1.2405,0.012517,0.013709
1.241,0.010133,-0.013411
1.2415,0.017583,-0.035763
1.242,0.013411,-0.036061
1.2425,0.002384,-0.016093
1.243,-0.001788,-0.005662
1.2435,-0.001192,-0.009835
1.244,-0.002682,-0.024438
1.2445,-0.012219,-0.033081
1.245,-0.01967,-0.029206
1.2455,-0.008941,-0.041127
1.246,0.005364,-0.056326
1.2465,0,-0.063479
1.247,-0.020862,-0.060797
1.2475,-0.042319,-0.045002
1.248,-0.063479,-0.033081
1.2485,-0.067651,0.004172
1.249,-0.07242,0.061989
1.2495,-0.068247,0.092685
1.25,-0.05722,0.087023
1.2505,-0.029802,0.049472
1.251,0.008047,0.029206
1.2515,0.036955,0.018179
1.252,0.050664,0.006258
1.2525,0.059903,-0.007451
1.253,0.077784,-0.020564
1.2535,0.082254,-0.037551
1.254,0.068843,-0.054538
1.2545,0.04828,-0.067055
1.255,0.034869,-0.080764
1.2555,0.027418,-0.066757
1.256,0.016689,-0.044703
1.2565,0.007451,-0.026524
1.257,0.006557,-0.014901
1.2575,0.005364,-0.004768
1.258,0.002086,0.000894
1.2585,0.001192,0.007451
1.259,0,0.008345
1.2595,0.002384,0.009537
1.26,0.006557,0.008643
1.2605,0.003278,0.008643
1.261,0.000894,0.012517
1.2615,0.006557,0.008941
1.262,0.005662,0.010133
1.2625,0.006557,0.012815
1.263,0.005662,0.015497
1.2635,0.00596,0.014305
1.264,0.001788,0.010729
1.2645,0.013411,0.011027
1.265,0.026524,0.00447
1.2655,0.035763,0.011325
1.266,0.026226,0.010729
1.2665,0.020862,0.007153
1.267,0.018179,0.008643
1.2675,0.011325,0.014305
1.268,-0.012517,0.017881
1.2685,-0.032485,0.016093
1.269,-0.042617,0.020862
1.2695,-0.035465,0.022054
1.27,-0.014603,0.014305
1.2705,0.020564,0.008047
1.271,0.041425,0.008047
1.2715,0.038147,0.004768
1.272,0.023544,0.00447
1.2725,-0.000298,0.004768
1.273,-0.011325,0.009239
1.2735,-0.005364,0.011623
1.274,0.000596,0.010133
1.2745,0.002384,0.008047
1.275,0.003278,0.010133
1.2755,0.000298,0.013411
1.276,-0.002682,0.016987
1.2765,-0.008047,0.014603
1.277,-0.007153,0.011027
1.2775,0.003576,0.010729
1.278,0.007451,0.010729
1.2785,0.009537,0.010431
1.279,0.008345,0.009835
1.2795,0.007749,0.008047
1.28,0.011921,0.008941
1.2805,0.013411,0.006258
1.281,0.011623,0.008345
1.2815,0.000596,0.012219
1.282,-0.014603,0.020266
1.2825,-0.022054,0.01967
1.283,-0.016391,0.018477
1.2835,-0.007451,0.015199
1.284,-0.00298,0.009835
1.2845,-0.001788,0.010729
1.285,0.001788,0.006258
1.2855,0.00298,0.006557
1.286,0.000596,0.008941
1.2865,-0.005662,0.012219
1.287,-0.005662,0.009835
1.2875,-0.005066,0.010133
1.288,0,-0.001192
1.2885,0.002682,-0.012517
1.289,-0.00149,-0.000894
1.2895,0.000596,0.008047
1.29,0.003576,-0.00149
1.2905,0.007749,-0.008941
1.291,0.008941,-0.014901
1.2915,0.009835,-0.023544
1.292,0.011921,-0.020266
1.2925,0.014603,-0.021756
1.293,0.016689,-0.021458
1.2935,0.006855,-0.008047
1.294,0.00298,0.012219
1.2945,0.012517,0.031292
1.295,0.021458,0.042021
1.2955,0.016391,0.056028
1.296,0.001788,0.071228
1.2965,-0.007153,0.076294
1.297,-0.006557,0.058413
1.2975,-0.002086,0.046492
1.298,-0.000298,0.040233
1.2985,0.002086,0.030398
1.299,0.008643,0.013113
1.2995,0.010133,0.00447
1.3,0.006557,-0.002086
1.3005,0.00596,-0.011921
1.301,0.009239,-0.023246
1.3015,0.008047,-0.039935
1.302,0.003576,-0.041425
1.3025,-0.000298,-0.027716
1.303,-0.002682,-0.014305
1.3035,-0.002384,0.001788
1.304,0.005662,-0.003576
1.3045,0.015199,-0.007153
1.305,0.011921,-0.001192
1.3055,0.006258,0.000298
1.306,0.000298,0.005364
1.3065,-0.003874,0.008345
1.307,-0.001192,0.007153
1.3075,0.002682,-0.000298
1.308,0.013709,-0.020266
1.3085,0.020564,-0.030398
1.309,0.026226,-0.023544
1.3095,0.022352,-0.02116
1.31,0.019372,-0.016987
1.3105,0.016391,-0.008941
1.311,0.015199,-0.003874
1.3115,0.008941,-0.005662
1.312,-0.002682,-0.014305
1.3125,-0.011921,-0.009239
1.313,-0.015795,-0.000596
1.3135,-0.005364,0.002086
1.314,0.014007,0.001192
1.3145,0.019073,0.000596
1.315,0.005066,0.005364
1.3155,-0.003874,0.009835
1.316,-0.002682,0.010133
1.3165,0.002384,0.011921
1.317,0.003278,0.002682
1.3175,0.001788,0.00149
1.318,0,0.011027
1.3185,-0.005066,0.012815
1.319,-0.002384,0.015497
1.3195,0.003874,0.010133
1.32,0.003874,0.009537
1.3205,0.002384,0.013411
1.321,0.003576,0.008941
1.3215,0.007153,0.001192
1.322,0.008643,-0.001788
1.3225,0.007451,0.007153
1.323,-0.001788,0.017285
1.3235,-0.003278,0.023544
1.324,-0.002682,0.025034
1.3245,-0.001788,0.022948
1.325,0.00447,0.013113
1.3255,0.006855,0.008047
1.326,0.003576,0.009537
1.3265,0.00596,0.005662
1.327,0.012517,0.011325
1.3275,0.018775,0.023544
1.328,0.021458,0.039041
1.3285,0.01967,0.036359
1.329,0.015199,0.02116
1.3295,0.01967,-0.002682
1.33,0.018179,-0.028312
1.3305,0.012517,-0.036061
1.331,0.012517,-0.036061
1.3315,0.007153,-0.030398
1.332,0.006258,-0.016391
1.3325,0.000596,0.00149
1.333,-0.00149,0.006855
1.3335,-0.003874,0.007153
1.334,-0.003576,-0.00298
1.3345,-0.000298,-0.021458
1.335,0.001788,-0.025928
1.3355,0.00298,-0.004768
1.336,0.003278,0.02265
1.3365,0,0.024438
1.337,-0.002086,0.016093
1.3375,0.000894,0.015199
1.338,0.005364,0.009537
1.3385,-0.000596,0.008643
1.339,-0.000894,0.011027
1.3395,0.000596,0.010133
1.34,-0.007153,0.011027
1.3405,-0.005662,0.007153
1.341,-0.006855,0.008643
1.3415,-0.003874,0.00596
1.342,-0.003278,0.007451
1.3425,0.000596,0.005662
1.343,0.003874,0.005662
1.3435,0.009239,0.005662
1.344,0.020266,0.006855
1.3445,0.020862,0.00596
1.345,0.014603,0.011921
1.3455,0.014007,0.013411
1.346,0.024736,0.010431
1.3465,0.023842,0.00447
1.347,0.012517,0.005364
1.3475,0.005364,0.006557
1.348,0.001192,0.010133
1.3485,0.000596,0.003576
1.349,0.00298,0.003278
1.3495,0.010431,0.003874
1.35,0.009537,0.00447
1.3505,0.007749,0.006557
1.351,0.000596,0.012815
1.3515,-0.000894,0.010431
1.352,0.002384,0.006258
1.3525,0.000894,0.004768
1.353,-0.001192,0.006557
1.3535,-0.002086,0.007153
1.354,-0.001192,0.011921
1.3545,0.000298,0.007451
1.355,0.003278,0.007451
1.3555,0.006557,0.005662
1.356,0.007451,0.006557
1.3565,0.006258,0.011623
1.357,-0.003576,0.013411
1.3575,0.001192,0.011325
1.358,0.002384,0.006557
1.3585,0.005662,0.007153
1.359,0.003576,0.002682
1.3595,0,0.002682
1.36,0.000596,0.007749
1.3605,0.003576,0.00596
1.361,-0.000894,0.008345
1.3615,-0.002384,0.006258
1.362,-0.000298,0.007153
1.3625,0.002682,0.005364
1.363,0.004172,0.008941
1.3635,0.002384,0.008047
1.364,0.006855,0.005662
1.3645,0.007153,0.008047
1.365,0.003576,0.006557
1.3655,0.005066,0.002384
1.366,0.005662,0.00149
1.3665,0.000298,0.000298
1.367,0.004768,-0.002384
1.3675,0.006855,0.000596
1.368,0.005066,0.006855
1.3685,0.002682,0.007451
1.369,0,0.009835
1.3695,-0.001788,0.009835
1.37,-0.007749,0.011921
1.3705,-0.005066,0.016093
1.371,0.00447,0.014603
1.3715,0.015795,0.012517
1.372,0.016391,0.012219
1.3725,0.005066,0.011325
1.373,-0.011027,0.012815
1.3735,-0.012815,0.011027
1.374,-0.003278,0.008345
1.3745,-0.000298,0.005066
1.375,0,-0.00149
1.3755,0.005364,-0.009239
1.376,0.00298,-0.011325
1.3765,0.003576,-0.009239
1.377,0.009835,-0.003576
1.3775,0.004172,-0.011027
1.378,-0.003874,-0.005364
1.3785,-0.00596,0.007153
1.379,0.000894,0.008941
1.3795,0.007153,0.006855
1.38,0.00298,0.00447
1.3805,-0.001192,0.007451
1.381,-0.000894,0.009835
1.3815,0.005662,0.007153
1.382,0.004768,0.009537
1.3825,0.00149,0.007153
1.383,0.002384,0.00447
1.3835,0.001788,0.00149
1.384,0.003278,-0.005066
1.3845,0.003576,-0.00447
1.385,0.005066,-0.010729
1.3855,0.005066,-0.012517
1.386,0.007153,-0.022054
1.3865,0.005364,-0.022054
1.387,0,-0.013113
1.3875,0.007749,-0.008345
1.388,0.013113,-0.00596
1.3885,0.018179,-0.000596
1.389,0.013411,0.000596
1.3895,0.00596,0.00149
1.39,0.006855,0.004172
1.3905,0.008345,0.005066
1.391,0.010729,0.002086
1.3915,0.011921,0.007451
1.392,-0.002384,0.00596
1.3925,-0.016987,0.007749
1.393,-0.015199,0.003874
1.3935,-0.00596,0.004172
1.394,0.001788,0.006855
1.3945,0.000894,0.003576
1.395,0.000596,0.00149
1.3955,0.007153,0.003874
1.396,0.008345,0.006258
1.3965,0.005066,0.003278
1.397,0.00447,0
1.3975,0.002384,0.001192
1.398,-0.002086,-0.000298
1.3985,0.001192,0.002682
1.399,0.00298,0.003874
1.3995,-0.00149,0.00298
1.4,-0.00298,0.000596
1.4005,-0.000596,0.00149
1.401,0.006557,0.003278
1.4015,0.012219,-0.000894
1.402,0.010431,-0.006258
1.4025,0.007153,-0.007451
1.403,0.004172,-0.001788
1.4035,0.00596,-0.003278
1.404,0.004768,-0.002086
1.4045,0.003576,0.000596
1.405,-0.001192,0.000298
1.4055,-0.003278,0.000596
1.406,-0.001192,0.001788
1.4065,0.001192,0.009239
1.407,0.003278,0.00596
1.4075,0.007749,0.005662
1.408,0.009537,0.008941
1.4085,0.003278,0.014007
1.409,0.000298,0.016689
1.4095,0.001192,0.017881
1.41,-0.000894,0.019372
1.4105,-0.000298,0.02414
1.411,0.00149,0.014305
1.4115,0.00149,0.010431
1.412,0.00596,0.012815
1.4125,0.007451,0.011325
1.413,0.00447,0.013709
1.4135,0.000298,0.013113
1.414,0.004768,0.007153
1.4145,0.005066,0
1.415,0.008941,0.00149
1.4155,0.00298,0.005662
1.416,0,0.006258
1.4165,0.002384,0.009239
1.417,0.00149,0.008941
1.4175,0.00149,0.008941
1.418,0.00298,0.010133
1.4185,0.00149,0.008345
1.419,0.00298,0.008345
1.4195,0.009537,0.002682
1.42,0.011921,-0.00596
1.4205,0.012517,-0.003278
1.421,0.008941,0.005066
1.4215,0.004768,0.011623
1.422,0.002086,0.012517
1.4225,0.002086,0.016987
1.423,0.00298,0.016689
1.4235,0.004172,0.011325
1.424,0.007153,0.006855
1.4245,0.003576,0.013709
1.425,0.002086,0.012219
1.4255,0.00447,0.012815
1.426,0.006258,0.00596
1.4265,0.008047,0.005364
1.427,0.014603,0.00596
1.4275,0.009835,0.006258
1.428,0.00447,0.007749
1.4285,0.004768,0.010431
1.429,0.002682,0.011325
1.4295,0.003874,0.009835
1.43,0.006258,0.004768
1.4305,0.005662,0.003576
1.431,0.010431,-0.001788
1.4315,0.013709,0
1.432,0.010729,0.004768
1.4325,0.008047,0.008643
1.433,0.008047,0.009537
1.4335,0.006258,0.007451
1.434,0.006258,0.009537
1.4345,0.004768,0.010133
1.435,0.00149,0.009835
1.4355,-0.000894,0.011921
1.436,0.000894,0.009835
1.4365,0.003278,0.006258
1.437,0.00447,0.003576
1.4375,0.004172,0.001788
1.438,0.005364,-0.001788
1.4385,0.005364,0.00298
1.439,0.003278,0.003278
1.4395,0.001192,0.006258
1.44,0.005066,-0.000596
1.4405,0.012815,-0.001192
1.441,0.010133,-0.00149
1.4415,0.004768,0.002682
1.442,0.00149,0.006557
1.4425,0.00149,0.00447
1.443,-0.001788,0.003278
1.4435,0.001788,0.000894
1.444,0.006258,-0.003874
1.4445,0.006855,-0.004172
1.445,0.005662,-0.002682
1.4455,0.004768,-0.000298
1.446,0.008345,-0.000894
1.4465,0.011325,0.003576
1.447,0.005364,0.002682
1.4475,0.003874,0.004768
1.448,0.005066,-0.000596
1.4485,0.005364,0.001788
1.449,0.005066,0.001788
1.4495,0.003874,-0.000298
1.45,0.002682,0.001788
1.4505,0.00447,0.00447
1.451,-0.001192,0.005364
1.4515,-0.000596,0.005066
1.452,0.001788,0.003278
1.4525,0.003278,-0.000596
1.453,0.002682,-0.004768
1.4535,0.00596,-0.004172
1.454,0.005066,-0.002384
1.4545,0.003576,-0.000596
1.455,0.004172,0.005662
1.4555,0.00596,0.006557
1.456,0.004172,0.002384
1.4565,0.005066,0.000596
1.457,0.001788,0.004172
1.4575,-0.005066,0.005364
1.458,-0.006855,-0.001192
1.4585,-0.00447,0.000894
1.459,-0.003278,0.003576
1.4595,-0.001192,0.002384
1.46,0.002682,0.003576
1.4605,0.003874,0.001788
1.461,0.005662,0.005364
1.4615,0.002682,0.006557
1.462,0.011921,0.012219
1.4625,0.016391,0.00447
1.463,0.004768,0.012219
1.4635,-0.000894,0.019968
1.464,0.009537,0.019968
1.4645,0.013709,0.019968
1.465,0.008941,0.018179
1.4655,0.00298,0.017881
1.466,0.002384,0.018179
1.4665,-0.000894,0.020266
1.467,-0.003278,0.015199
1.4675,0.006855,0.007451
1.468,0.009835,0.003874
1.4685,0.011623,0.000298
1.469,0.010729,0.000596
1.4695,0.009537,-0.009239
1.47,0.016093,-0.019073
1.4705,0.014305,-0.024438
1.471,0.009835,-0.019968
1.4715,0.007749,-0.022054
1.472,0.007153,-0.02414
1.4725,0.00596,-0.030696
1.473,0.010431,-0.02712
1.4735,0.012815,-0.017285
1.474,0.004172,-0.002682
1.4745,0.00298,0.005066
1.475,0.007749,0.004172
1.4755,0.009239,-0.014901
1.476,0.003278,-0.015795
1.4765,0.002086,-0.010431
1.477,0.008047,0.001192
1.4775,0.009835,0.015795
1.478,0.010431,0.023246
1.4785,0.010133,0.02265
1.479,0.009537,0.016689
1.4795,0.007749,0.014901
1.48,0.004172,0.012517
1.4805,-0.001192,0.020862
1.481,-0.00596,0.019372
1.4815,-0.006258,0.008047
1.482,-0.008941,0.000596
1.4825,-0.008345,0.006855
1.483,-0.017583,0.013709
1.4835,-0.02563,0.020862
1.484,-0.017285,0.024736
1.4845,-0.006855,0.02563
1.485,-0.001192,0.016987
1.4855,0.011027,0.010431
1.486,0.015199,-0.000894
1.4865,0.02116,-0.000596
1.487,0.017583,0.005662
1.4875,0.011623,0.011325
1.488,-0.003278,0.001788
1.4885,-0.011027,-0.002086
1.489,0.00149,-0.004172
1.4895,0.02414,-0.004172
1.49,0.019372,0.002682
1.4905,0.012815,0.002384
1.491,0.012219,-0.002384
1.4915,0.012517,-0.002384
1.492,0.011027,-0.007451
1.4925,0.008345,-0.011027
1.493,0.004172,-0.005662
1.4935,0.007153,-0.002682
1.494,0.00596,-0.002384
1.4945,0.007153,-0.000298
1.495,0.007451,0.000894
1.4955,0.001192,0.002086
1.496,-0.003576,0.00447
1.4965,-0.00298,0.003874
1.497,-0.007451,0.009835
1.4975,-0.004768,0.011325
1.498,0.000596,0.014007
1.4985,0.002384,0.008941
1.499,0.000596,0.008047
1.4995,0.006258,0.005066
1.5,0.003874,0.005364
1.5005,0.00447,0.005364
1.501,0.00298,0.003576
1.5015,0.002086,-0.008643
1.502,0.007153,-0.017583
1.5025,0.005364,-0.014007
1.503,-0.002384,-0.00596
1.5035,-0.003278,0.002086
1.504,-0.001788,0.011027
1.5045,0.002682,0.011623
1.505,0.009239,0.008941
1.5055,0.018477,0.005662
1.506,0.031292,0.00298
1.5065,0.029802,-0.00298
1.507,0.019372,-0.011027
1.5075,0.008047,-0.017881
1.508,0.008643,-0.015199
1.5085,0.007749,-0.011325
1.509,0.00149,-0.00596
1.5095,0.000298,-0.002086
1.51,0.00149,0.00149
1.5105,0.001788,0.00298
1.511,0.001788,-0.002682
1.5115,0.001788,0.007451
1.512,0,0.015795
1.5125,0.003874,0.014305
1.513,0.005364,0.017583
1.5135,0.005364,0.017881
1.514,0.000894,0.018179
1.5145,0.000298,0.012517
1.515,0.002682,0.015199
1.5155,-0.006855,0.018477
1.516,-0.004768,0.02265
1.5165,-0.004768,0.021756
1.517,-0.011921,0.015497
1.5175,-0.005364,0.014901
1.518,-0.001788,0.011325
1.5185,0.002384,0.009537
1.519,-0.002384,0.012219
1.5195,-0.00596,0.019372
1.52,-0.004172,0.015497
1.5205,-0.00298,0.012815
1.521,-0.000596,0.009537
1.5215,-0.000894,0.006557
1.522,0.003278,0.00447
1.5225,0.003874,0.006258
1.523,0.004172,0.008345
1.5235,0.005662,0.009239
1.524,0.001788,0.007749
1.5245,0.002682,0.007153
1.525,-0.002086,0.009239
1.5255,0.001192,0.005364
1.526,0.005662,0.008345
1.5265,0.00447,0.009835
1.527,0.006557,0.009537
1.5275,0.007451,0.005066
1.528,0.003576,0.008941
1.5285,0.001788,0.008643
1.529,0.003278,0.008643
1.5295,0.003278,0.013411
1.53,0.005662,0.012219
1.5305,0.005066,0.007451
1.531,0.003576,0.003874
1.5315,0.003278,0.007153
1.532,0.007451,0.00596
1.5325,0.006557,0.007451
1.533,0.005066,0.006557
1.5335,0.006557,0.007451
1.534,0.00149,0.008643
1.5345,0.003874,0.003576
1.535,0.008643,0.003278
1.5355,0.005662,0.00447
1.536,0.007749,0.007153
1.5365,0.010133,0.002682
1.537,0.008047,0.00447
1.5375,0.009239,0.003576
1.538,0.006557,0.012517
1.5385,0.000596,0.009835
1.539,0.002384,0.00596
1.5395,0.003576,0.005066
1.54,0.005066,0.00596
1.5405,0.00596,0.006557
1.541,0.006855,0.003278
1.5415,0.006855,0.006258
1.542,0.004768,0.007153
1.5425,0.00447,0.008047
1.543,0.00447,0.008643
1.5435,0.006557,0.007451
1.544,0.008345,0.006557
1.5445,0.007153,0.005364
1.545,0.009239,0.007451
1.5455,0.008643,0.007153
1.546,0.007451,0.006258
1.5465,0.008047,0.00596
1.547,0.008941,0.007153
1.5475,0.008941,0.006557
1.548,0.008345,0.007153
1.5485,0.011027,0.008345
1.549,0.011325,0.012219
1.5495,0.010729,0.004172
1.55,0.009835,0.006258
1.5505,0.00596,0.005066
1.551,0.008345,0.007153
1.5515,0.007451,0.006855
1.552,0.005662,0.008941
1.5525,0.00596,0.009835
1.553,0.009239,0.007749
1.5535,0.006855,0.011027
1.554,0.001788,0.013113
1.5545,-0.000894,0.014603
1.555,0.003874,0.011623
1.5555,0.003874,0.011921
1.556,0.003576,0.00596
1.5565,0.011623,0.005364
1.557,0.015795,-0.001788
1.5575,0.010729,-0.004768
1.558,0.007749,0.000298
1.5585,0.008941,0.002086
1.559,0.00596,0.00298
1.5595,0.00596,0.00298
1.56,0.004768,0.003576
1.5605,0.005662,0.000596
1.561,0.006557,-0.002384
1.5615,0.005662,0
1.562,-0.000298,0.00298
1.5625,0.003874,-0.000298
1.563,0.003278,0.000894
1.5635,0.00596,0.001788
1.564,-0.00149,0.000894
1.5645,0.00298,0.001192
1.565,0.003278,0.003278
1.5655,0.00447,-0.001192
1.566,0.005066,0.001192
1.5665,0.005364,0.005066
1.567,0.005364,0.001192
1.5675,0.001788,0.002682
1.568,0.001788,0.000894
1.5685,0.002682,0.001192
1.569,0.00298,0.004172
1.5695,0.003278,0.005066
1.57,0.002086,0.003874
1.5705,0.003278,0.002086
1.571,0.003278,0.002384
1.5715,0.004768,0.000894
1.572,0.006258,-0.000894
1.5725,0.008047,-0.002384
1.573,0.010729,-0.006557
1.5735,0.011027,-0.000894
1.574,0.006258,0.001788
1.5745,0.005066,0.000894
1.575,0.001788,0.002682
1.5755,0.005066,-0.000894
1.576,0.003278,0.00298
1.5765,-0.002682,0.004172
1.577,-0.004172,0.005066
1.5775,-0.00149,0.006855
1.578,0.007153,0.005364
1.5785,0.006855,0.005066
1.579,0.003874,0.005066
1.5795,0.00596,0.000894
1.58,0.011921,0.00298
1.5805,0.008047,0.003278
1.581,0.009239,0.004172
1.5815,0.011623,0.002384
1.582,0.008345,0.00149
1.5825,0.006557,0.006855
1.583,0.00298,0.007153
1.5835,0.004768,0.00447
1.584,0.004768,0.00596
1.5845,0.00447,0.00447
1.585,0.004768,0.00149
1.5855,0.005662,0.003874
1.586,0.003278,0.006557
1.5865,0.003576,0.006557
1.587,0.004768,0.004172
1.5875,0.003278,0.005364
1.588,0.006258,0.003874
1.5885,0.008345,0.004172
1.589,0.008345,0.002682
1.5895,0.009835,0.00596
1.59,0.005364,0.007153
1.5905,0.006855,0.003874
1.591,0.003874,0.010133
1.5915,0.003576,0.008643
1.592,0.006557,0.005364
1.5925,0.005066,0.00596
1.593,0.003874,0.007153
1.5935,0.005364,0.012815
1.594,0.007451,0.010133
1.5945,0.00298,0.008345
1.595,0.001192,0.009835
1.5955,0.00149,0.009835
1.596,0.003576,0.011325
1.5965,0.00149,0.012219
1.597,0.001788,0.009537
1.5975,0.002086,0.003874
1.598,0.005066,0.002086
1.5985,0.006258,0.000596
1.599,0.005662,0.006258
1.5995,0,0.008941
1.6,-0.003576,0.007153
1.6005,-0.00149,0.005066
1.601,0.003278,0.002086
1.6015,0.005066,0.002086
1.602,0.003576,0.000894
1.6025,0.004172,-0.000298
1.603,0.007749,-0.000298
1.6035,0.008643,0
1.604,0.004768,0.00149
1.6045,0.002086,-0.000596
1.605,0.006855,-0.00149
1.6055,0.008643,0.001788
1.606,0.008941,0.000596
1.6065,0.003278,0.003576
1.607,0.000894,0.002682
1.6075,0.00149,0.000894
1.608,0.003874,0.004172
1.6085,0.001192,0.003874
1.609,0.004172,0.004172
1.6095,0.008643,0.002086
1.61,0.006855,0.007153
1.6105,0.008047,0.004768
1.611,0.007749,0.002682
1.6115,0.00447,0.004172
1.612,0.004172,0.008047
1.6125,0.003278,0.008941
1.613,0.003278,0.009537
1.6135,0.00447,0.008643
1.614,0.009239,0.004768
1.6145,0.012219,-0.002086
1.615,0.007451,-0.00298
1.6155,0.003278,0.002384
1.616,0.002682,0.008047
1.6165,0.006557,0.008047
1.617,0.006557,0.007153
1.6175,0,0.007749
1.618,0.003874,0.001788
1.6185,0.006557,-0.00149
1.619,0.008047,0.000596
1.6195,0.006557,0
1.62,0.003278,0.002086
1.6205,0.002086,0.002384
1.621,0.001788,0.004768
1.6215,0.003576,0.001192
1.622,0.00298,0.002086
1.6225,-0.00149,-0.000298
1.623,0.006557,0.001788
1.6235,0.00596,0.002384
1.624,0.000298,0.00447
1.6245,-0.001788,0.005662
1.625,0,0.006855
1.6255,-0.000298,0.005662
1.626,-0.000298,0.00447
1.6265,0.00447,0.004172
1.627,0.006855,0
1.6275,0.007153,-0.001192
1.628,0.005364,-0.002682
1.6285,0.008345,0.003874
1.629,0.005662,0.00596
1.6295,0.005066,0.008047
1.63,0.00596,0.008643
1.6305,0.005662,0.003278
1.631,0.008047,0.002682
1.6315,0.008941,0.003278
1.632,0.007451,0.000894
1.6325,0.00596,0.003278
1.633,0.009239,0.005066
1.6335,0.007749,0.005662
1.634,0.007451,0.002086
1.6345,0.005364,0.006258
1.635,0.001788,0.005364
1.6355,0.002384,0.007153
1.636,0.00298,0.008047
1.6365,0.005066,0.00596
1.637,0.006258,0.007153
1.6375,0.006855,-0.000596
1.638,0.007153,-0.000596
1.6385,0.005662,0.007153
1.639,0.003874,0.006557
1.6395,0.00447,0.003874
1.64,0.001788,0.003278
1.6405,0.006258,0.007749
1.641,0.002086,0.005364
1.6415,0.003874,0.005066
1.642,0.003874,0.009239
1.6425,0.001192,0.009835
1.643,0.002384,0.008941
1.6435,-0.000596,0.009835
1.644,-0.000596,0.008643
1.6445,0.001788,0.010729
1.645,-0.000894,0.007451
1.6455,0.004768,0.003874
1.646,0.004172,0.00447
1.6465,0.005364,0.003576
1.647,0.00596,0.001192
1.6475,0.011921,0.000596
1.648,0.011921,0.001192
1.6485,0.013113,0.000298
1.649,0.008941,0.00149
1.6495,0.009239,0.005066
1.65,0.006557,0.007749
1.6505,0.00298,0.008643
1.651,0.006557,0.00298
1.6515,0.009537,0.006855
1.652,0.009835,0.005066
1.6525,0.005364,0.008047
1.653,0.00447,0.010133
1.6535,0.00298,0.007153
1.654,0.00149,0.005364
1.6545,-0.002086,0.007153
1.655,0.00447,-0.002086
1.6555,0,0.002682
1.656,-0.004172,0.00596
1.6565,0.000596,0.006258
1.657,0.005066,0.003576
1.6575,0.011027,0.007153
1.658,0.002086,0.00447
1.6585,0.000298,0.00596
1.659,-0.000596,0.006557
1.6595,-0.002086,0.006855
1.66,0.000298,0.006855
1.6605,0.004172,0.004172
1.661,0.008345,0.002682
1.6615,0.003576,0.002384
1.662,0.001788,0.001788
1.6625,0.008941,0.002682
1.663,0.00596,0.005662
1.6635,0.008047,0.006258
1.664,0.006855,0.008345
1.6645,0.004768,0.00596
1.665,0.007153,0.009239
1.6655,0.005662,0.003874
1.666,0.004172,0.008345
1.6665,0.002384,0.013113
1.667,0.000894,0.012815
1.6675,0.001788,0.007153
1.668,0.007451,0.006258
1.6685,0.008047,0.007749
1.669,0.004172,0.003278
1.6695,0.003576,0.005662
1.67,0.002086,0.005662
1.6705,0.000894,0.007451
1.671,0.003278,0.008345
1.6715,0.006855,0.003874
1.672,0.006557,0.003278
1.6725,0.009239,0.004172
1.673,0.007153,0.004768
1.6735,0.001192,0.010133
1.674,0.002384,0.009239
1.6745,0.008345,0.003278
1.675,0.008047,0
1.6755,0.010133,-0.003576
1.676,0.009537,0.001788
1.6765,0.008345,0.004768
1.677,0.006258,0.000596
1.6775,0.005066,0.002384
1.678,0.003874,0.006258
1.6785,0.000298,0.010431
1.679,0.002384,0.007153
1.6795,0.006855,0.005066
1.68,0.003874,0.006557
1.6805,0.002682,0.00596
1.681,0.006855,0.004768
1.6815,0.008941,0.00447
1.682,0.007749,0.005662
1.6825,0.006258,0.003278
1.683,0.005662,0.007451
1.6835,0.003874,0.004768
1.684,0.003874,0.008047
1.6845,0.003576,0.005662
1.685,0.003278,0.006855
1.6855,0.004768,0.006258
1.686,0.001788,0.003278
1.6865,0.002384,0.003278
1.687,0.000894,0.006557
1.6875,0,0.009835
1.688,0.004172,0.009239
1.6885,0.00447,0.00447
1.689,0.008643,0.000298
1.6895,0.006258,0.003278
1.69,0.002086,0.005066
1.6905,-0.001788,0.005364
1.691,0,0.007153
1.6915,0.006557,0.008047
1.692,0.006855,0.004172
1.6925,0.010729,0.006855
1.693,0.009537,0.005364
1.6935,0.005662,0.000596
1.694,0.007749,0.000894
1.6945,0.009835,0.00447
1.695,0.007451,0.001192
1.6955,0.005662,-0.002086
1.696,0.004768,0.002384
1.6965,0.000894,0.004768
1.697,0.005364,0.005364
1.6975,0.003874,0.006557
1.698,0.004172,0.003278
1.6985,0.004768,0.002682
1.699,0.002682,0.003576
1.6995,0.003874,0.005364
1.7,0.005364,0.00596
1.7005,0.007153,0.002086
1.701,0.005662,0.00298
1.7015,0.006855,0.005662
1.702,0.004768,0.005662
1.7025,0.002086,0.008941
1.703,0.001192,0.011027
1.7035,0.007749,0.012517
1.704,0.005662,0.002384
1.7045,0.005364,0.002384
1.705,0.010133,-0.000596
1.7055,0.007451,0.000596
1.706,0.008047,0.005364
1.7065,0.010431,0.00447
1.707,0.005066,0.003278
1.7075,0.003576,-0.001192
1.708,0.001788,0.007153
1.7085,0.006557,0.006855
1.709,0.004768,0.003874
1.7095,0.007451,0.007451
1.71,0.00596,0.007153
1.7105,0.004768,0.006557
1.711,-0.000894,0.010431
1.7115,-0.001192,0.009835
1.712,0.00149,0.005066
1.7125,0.004172,0.003874
1.713,0.008643,0.000298
1.7135,0.010133,0.00149
1.714,0.006557,0.003278
1.7145,0.001788,0.003576
1.715,0.001788,0.006258
1.7155,0.002682,0.002682
1.716,0.003576,0.00447
1.7165,0.006557,0.006855
1.717,0.002384,0.007451
1.7175,0.00149,0.005364
1.718,0.004172,0.006557
1.7185,0.004768,0.007451
1.719,0.005662,0.003576
1.7195,0.003576,0.001192
1.72,0.00596,0.000596
1.7205,0.006557,0.005662
1.721,0.009239,0.00149
1.7215,0.013411,-0.001192
1.722,0.013411,0.001788
1.7225,0.006855,0.00447
1.723,0.008941,0.005662
1.7235,0.006855,0.003576
1.724,0.006258,0.002682
1.7245,0.008941,0.006855
1.725,0.00298,0.007749
1.7255,0.006855,0.006855
1.726,0.004768,0.004172
1.7265,0.00149,0.008643
1.727,0.002384,0.007153
1.7275,0.003278,0.006557
1.728,0.006855,0.004768
1.7285,0.006557,0.006258
1.729,0.008643,0.007749
1.7295,0.00447,0.010431
1.73,0.003576,0.007153
1.7305,0.007749,0.007749
1.731,0.00447,0.00596
1.7315,0.002384,0.006855
1.732,0.002384,0.006258
1.7325,0.003576,0.008941
1.733,0.001192,0.003874
1.7335,0.004172,0.003874
1.734,0.001788,0.002086
1.7345,0.00596,0.006855
1.735,0.003278,0.003874
1.7355,0.000596,0.004172
1.736,0.002086,0.003576
1.7365,0.005364,0.002682
1.737,0.004172,0.005066
1.7375,0.010729,0.008047
1.738,0.003576,0.005066
1.7385,0.00149,0.003576
1.739,0.006258,0.004768
1.7395,0.004172,0.000894
1.74,0.003576,0.001192
1.7405,0.001788,0.00298
1.741,0.004172,-0.00149
1.7415,0.002682,0.004172
1.742,0.003874,0.005066
1.7425,0.003874,0.004768
1.743,0.006258,0.006557
1.7435,0.001788,0.002384
1.744,-0.001788,0.006557
1.7445,0.000596,0.011325
1.745,0.003278,0.003874
1.7455,0.002086,0.006258
1.746,0.000298,0.005662
1.7465,-0.000298,0.005364
1.747,0.004768,0.009239
1.7475,0.00298,0.008047
1.748,0.004172,0.00447
1.7485,0.001788,0.006258
1.749,0.000894,0.009239
1.7495,0.004768,0.010133
1.75,0.002086,0.010133
1.7505,0.003874,0.007451
1.751,0.00298,0.009239
1.7515,0.005066,0.009239
1.752,0.00447,0.012219
1.7525,0.005364,0.011921
1.753,0.00149,0.011623
1.7535,0.000596,0.009537
1.754,-0.000596,0.011921
1.7545,0.005364,0.009835
1.755,-0.000596,0.013709
1.7555,0.002384,0.008643
1.756,-0.000894,0.00596
1.7565,-0.00298,0.00447
1.757,0.002086,0.010729
1.7575,0.000894,0.006258
1.758,0.003576,0.005364
1.7585,0.003576,0.00447
1.759,0,0.005066
1.7595,0.006258,0.008047
1.76,0.005662,0.003278
1.7605,0.002682,0.00596
1.761,0.003576,0.006855
1.7615,0.003576,0.005066
1.762,0.003874,0.003576
1.7625,0.001788,0.006855
1.763,0.000298,0.008941
1.7635,0.000596,0.007153
1.764,0.000894,0.007749
1.7645,-0.00149,0.008643
1.765,0.004172,0.00447
1.7655,0.004768,0.006557
1.766,0.003576,0.004768
1.7665,0.00596,0.003874
1.767,0.00447,0.006258
1.7675,0.003874,0.003874
1.768,0.00447,0.008941
1.7685,0.006855,0.006258
1.769,0.00596,0.007451
1.7695,0.006557,0.00298
1.77,0.008643,0.006557
1.7705,0.008643,0.003874
1.771,0.007749,0.002086
1.7715,0.011027,0.004768
1.772,0.011325,0.002086
1.7725,0.008345,-0.000596
1.773,0.005364,-0.00149
1.7735,0.00596,0
1.774,0.002384,0.000894
1.7745,0.004768,0.000596
1.775,0.007153,-0.00149
1.7755,0.005364,0.00149
1.776,0.002682,-0.00149
1.7765,0.004172,-0.004172
1.777,0.00298,-0.000894
1.7775,0.002384,0.003874
1.778,-0.00149,0
1.7785,-0.003576,0.002682
1.779,0.000596,0.00447
1.7795,0.003278,0.003576
1.78,0.001788,0.005066
1.7805,0.010133,-0.005364
1.781,0.008047,-0.003278
1.7815,0.011921,-0.002682
1.782,0.009239,-0.002384
1.7825,0.004172,0.000596
1.783,0.006258,0.004768
1.7835,0.007451,0
1.784,0.009239,-0.000596
1.7845,0.012815,-0.000596
1.785,0.009537,-0.002682
1.7855,0.011325,0.000894
1.786,0.014305,0.003576
1.7865,0.011027,0.002086
1.787,0.008941,0.005662
1.7875,0.008047,0.006258
1.788,0.013113,0.000298
1.7885,0.007153,-0.00149
1.789,0.00298,0.006258
1.7895,-0.003576,0.010729
1.79,-0.00298,0.007153
1.7905,0.00149,0.005662
1.791,0.002086,0.005066
1.7915,0.003576,0.00149
1.792,0.004172,0.005066
1.7925,0.00596,0.007451
1.793,0.004172,0.006557
1.7935,0.005066,0.004768
1.794,0.003278,0.002682
1.7945,0.003874,-0.000596
1.795,0.005364,0.00596
1.7955,0.003874,0.006258
1.796,0.000894,0.011921
1.7965,-0.000894,0.008047
1.797,0.000298,0.002086
1.7975,0.005066,0.003874
1.798,0.009537,0.005364
1.7985,0.006855,0.004768
1.799,0.004768,0.004172
1.7995,0.004172,0.005066
1.8,0.006258,0.006258
1.8005,0.00596,0.003576
1.801,0.003576,0.006258
1.8015,0.002384,0.007749
1.802,0.00149,0.005662
1.8025,-0.000298,0.004172
1.803,-0.003874,0.009239
1.8035,-0.001192,0.011325
1.804,0.000298,0.013113
1.8045,0.003278,0.006557
1.805,0.002384,0.003278
1.8055,0.004172,0.003278
1.806,0.00447,0.004768
1.8065,0.008643,0.012219
1.807,0.008643,0.008047
1.8075,0.005364,0.007749
1.808,0.006258,0.007749
1.8085,0.002086,0.005662
1.809,0.00447,0.004768
1.8095,0.004172,0.005066
1.81,0.002086,0.006258
1.8105,0.00298,0.008345
1.811,0.003576,0.005364
1.8115,0.003576,0.003576
1.812,0.003576,0.00447
1.8125,0.002682,0.004768
1.813,0.002086,0.006258
1.8135,0.001192,0.006258
1.814,0.001788,0.005066
1.8145,0.002086,0.005364
1.815,0,0.006855
1.8155,0.00149,0.007153
1.816,0.000298,0.005662
1.8165,0.003278,0.005364
1.817,0.00447,0.003576
1.8175,0.002086,0.002086
1.818,0.001192,0.002682
1.8185,0.006258,0.001788
1.819,0.007153,0.002086
1.8195,0.005364,0.001192
1.82,0.006855,0.001192
1.8205,0.009239,0.00447
1.821,0.004172,0.000894
1.8215,0.00447,0.00596
1.822,0.005066,0.00149
1.8225,0.007153,0.000298
1.823,0.008941,0.001192
1.8235,0.005066,0.007153
1.824,0.00298,0.008345
1.8245,0.003278,0.005066
1.825,0.00149,0.001192
1.8255,0.006855,0.001192
1.826,0.004768,0.00447
1.8265,0.006258,0.001788
1.827,0.007749,-0.002086
1.8275,0.007749,-0.003874
1.828,0.007451,0.000298
1.8285,0.010431,0
1.829,0.011027,0.002384
1.8295,0.004768,0.005066
1.83,0.003576,0.004172
1.8305,0.004768,0.002682
1.831,0.008047,0.002086
1.8315,0.007153,0.000596
1.832,0.007153,0.000596
1.8325,0.005066,0
1.833,0.008047,0.000596
1.8335,0.008345,0.000596
1.834,0.006557,0.001192
1.8345,0.005066,0.004172
1.835,0.009835,0.000596
1.8355,0.006855,0.00149
1.836,0.002682,0.002384
1.8365,0.002384,0.007451
1.837,0.003874,0.006258
1.8375,0,0
1.838,-0.001788,0.006557
1.8385,-0.000298,0.003278
1.839,0.00447,0.00298
1.8395,0.006258,0
1.84,0.003874,0.005066
1.8405,0.00298,0.006855
1.841,0.008047,0.004172
1.8415,0.011325,-0.001788
1.842,0.007153,0.001788
1.8425,0.009239,0.002086
1.843,0.005066,0.004172
1.8435,0.00298,0.002384
1.844,0.007451,0.003874
1.8445,0.008345,0.008941
1.845,0.008941,0.001192
1.8455,0.012815,0.00298
1.846,0.008047,0.005364
1.8465,0.006557,0.002682
1.847,0.006855,0.004768
1.8475,0.006557,0.006258
1.848,0.004768,0.004172
1.8485,0.005364,0.003576
1.849,0.005364,0.003576
1.8495,-0.002086,0.006855
1.85,-0.000596,0.004768
1.8505,0.00149,-0.00298
1.851,0.005662,-0.001192
1.8515,0.007153,0.000894
1.852,0.008941,0.000894
1.8525,0.00298,-0.001192
1.853,0.002682,0.000894
1.8535,0.007153,0.002682
1.854,0.011623,-0.000894
1.8545,0.007451,-0.003874
1.855,0.00298,0.003874
1.8555,0.002682,0.005066
1.856,0.000298,0.004172
1.8565,-0.000894,0.001788
1.857,0.006855,0.002682
1.8575,0.007153,0.002682
1.858,0.005662,0.003576
1.8585,0.006855,0.000894
1.859,0.00596,0.000298
1.8595,0.005364,0.001192
1.86,0.006557,0.005066
1.8605,0.008345,0.002682
1.861,0.009537,0.003576
1.8615,0.007749,-0.003576
1.862,0.010133,-0.002384
1.8625,0.013709,-0.000894
1.863,0.010133,-0.002384
1.8635,0.007451,0.00298
1.864,0.004172,0.009239
1.8645,0.000894,0.009239
1.865,-0.000298,0.005066
1.8655,-0.004172,0.005364
1.866,-0.004172,0.00596
1.8665,0.000894,0.007153
1.867,0.006855,0.008345
1.8675,0.006258,0.005662
1.868,0.007749,0.012815
1.8685,0.009239,0.00447
1.869,0.008941,0.003874
1.8695,0.008345,0.001788
1.87,0.011325,0.003278
1.8705,0.009537,0.001192
1.871,0.00447,0.004172
1.8715,0.007451,0.002682
1.872,0.007749,0.001788
1.8725,0.007749,0.003278
1.873,0.006855,0.004172
1.8735,0.011027,0.003874
1.874,0.007451,0.00298
1.8745,0.007153,0.002682
1.875,0.005662,0.002682
1.8755,0.002384,0.00596
1.876,0.001192,0.006855
1.8765,0.007153,0.005066
1.877,0.010431,0.003278
1.8775,0.006258,-0.000596
1.878,0.007153,0.002086
1.8785,0.007451,0.003576
1.879,0.011325,0.003576
1.8795,0.004172,0.003278
1.88,0.004172,0.004768
1.8805,0,0.005662
1.881,0.000894,0.005066
1.8815,0.003278,0.00149
1.882,0.00596,0.002384
1.8825,0.007153,0.00298
1.883,0.013709,-0.003278
1.8835,0.010133,-0.001192
1.884,0.009239,-0.001192
1.8845,0.009537,0.002682
1.885,0.013411,0.00447
1.8855,0.010729,0.000894
1.886,0.006855,0.00149
1.8865,0.006557,-0.000596
1.887,0.005066,-0.002384
1.8875,0.006258,0.004172
1.888,0.00298,0.000596
1.8885,0.00298,0.00447
1.889,0.002384,0.006258
1.8895,0.000894,0.014305
1.89,0.000298,0.013411
1.8905,-0.000298,0.008941
1.891,0.003278,0.004768
1.8915,0.007451,0.006258
1.892,0.008643,0.001192
1.8925,0.006258,0.003874
1.893,0.002384,0.007451
1.8935,0.004768,0.010431
1.894,0.00596,0.002384
1.8945,0.012517,-0.002682
1.895,0.011921,-0.002682
1.8955,0.009537,0.000298
1.896,0.009537,0.00149
1.8965,0.009537,0.002086
1.897,0.007749,0.00298
1.8975,0.010729,-0.000596
1.898,0.007451,0.003278
1.8985,0.006258,0.001192
1.899,0.002384,0.003576
1.8995,0.00298,0.002384
1.9,0.004768,0.002086
1.9005,0.006855,-0.002086
1.901,0.005662,0.002086
1.9015,0.00596,0.006258
1.902,0.004768,0.000596
1.9025,0.006855,-0.000298
1.903,0.008047,-0.001788
1.9035,0.00596,-0.000298
1.904,0.003576,0.00298
1.9045,0.000298,0.003576
1.905,0,0.002682
1.9055,0.001192,0.005364
1.906,0.000894,0.006855
1.9065,0.008047,0.005364
1.907,0.011325,0.006258
1.9075,0.011921,0.002086
1.908,0.011921,-0.000894
1.9085,0.011921,0.00298
1.909,0.008643,0.003278
1.9095,0.003278,0.002682
1.91,0.001788,0.002384
1.9105,0.000894,0.003576
1.911,0.002086,0.001788
1.9115,0.000596,0.003874
1.912,-0.00596,0.005066
1.9125,-0.005066,0.002682
1.913,-0.008047,0.00596
1.9135,-0.00447,0.005662
1.914,-0.005364,0.006557
1.9145,-0.00596,0.009835
1.915,-0.00149,0.005066
1.9155,-0.000894,0.005066
1.916,-0.000298,0.004768
1.9165,0.00298,0.005662
1.917,0.00149,0.00298
1.9175,-0.000298,0.003874
1.918,-0.000596,0.003874
1.9185,0.005364,0.00596
1.919,0.004172,0.006855
1.9195,0.003278,0.003278
1.92,0.00298,0.004172
1.9205,0.003278,0.010431
1.921,0.004172,0.010431
1.9215,0.002682,0.005662
1.922,0.002384,0.008345
1.9225,0.002682,0.006855
1.923,0.006557,0.009835
1.9235,-0.000894,0.009537
1.924,0.000298,0.013113
1.9245,0.004768,0.007749
1.925,0.007451,0.008047
1.9255,0.002086,0.008047
1.926,0.00149,0.014007
1.9265,0.00149,0.011325
1.927,-0.002086,0.008047
1.9275,-0.005364,0.010729
1.928,0.003278,0.006855
1.9285,0.00447,0.001192
1.929,0.007153,-0.002384
1.9295,0.005066,0.006855
1.93,0.006855,0.003278
1.9305,0.009537,0.003576
1.931,0.008047,0.000596
1.9315,0.00298,0.000298
1.932,0.007153,0.006258
1.9325,0.00298,0.004768
1.933,0.000894,-0.001192
1.9335,0.003278,0.002086
1.934,0.009537,-0.002682
1.9345,0.014603,-0.000298
1.935,0.012219,0.002384
1.9355,0.011027,-0.001788
1.936,0.014007,-0.002682
1.9365,0.014901,-0.001192
1.937,0.016391,-0.000596
1.9375,0.015199,-0.000596
1.938,0.011027,0.003576
1.9385,0.00596,0.00298
1.939,0.006258,0.005364
1.9395,0.003874,0.004172
1.94,-0.003278,0.005364
1.9405,-0.000596,0.004172
1.941,0.002384,0.005066
1.9415,0,0.006855
1.942,-0.004172,0.004768
1.9425,-0.005066,0.003576
1.943,-0.000298,0.005662
1.9435,-0.001788,0.008047
1.944,-0.003576,0.012219
1.9445,-0.002086,0.008941
1.945,0.00149,0.009537
1.9455,0.002086,0.007153
1.946,-0.004172,0.004768
1.9465,-0.007749,0.008941
1.947,-0.005066,0.009239
1.9475,-0.001192,0.007451
1.948,0.003874,0.008941
1.9485,0.010133,0.004768
1.949,0.013709,0.00447
1.9495,0.009537,0.00298
1.95,0.011623,0.002086
1.9505,0.014603,0.003278
1.951,0.011921,0.001788
1.9515,0.010431,0.00149
1.952,0.017881,0.002384
1.9525,0.016391,0.005364
1.953,0.010133,0.003874
1.9535,0.007451,0.008345
1.954,0.009537,0.009239
1.9545,0.003874,0.008047
1.955,0.002384,0.008941
1.9555,0.002384,0.011027
1.956,0.000596,0.012815
1.9565,-0.004768,0.013709
1.957,-0.009537,0.014901
1.9575,-0.007153,0.019968
1.958,-0.00149,0.018477
1.9585,-0.001192,0.011921
1.959,-0.000894,0.010729
1.9595,0.000298,0.003278
1.96,0.000298,0.001192
1.9605,0.007153,0.007153
1.961,0.004768,0.008941
1.9615,0.000894,0.010133
1.962,0.000894,0.008941
1.9625,0.006557,0.006557
1.963,0.008047,0.007153
1.9635,0.009835,0.007153
1.964,0.010729,0.006557
1.9645,0.007451,0.004172
1.965,0.005662,0.009239
1.9655,0.007451,0.006258
1.966,0.006855,0.004172
1.9665,0.003874,0.011325
1.967,0.004768,0.011921
1.9675,0.004768,0.007749
1.968,0.008345,0.00447
1.9685,0.008643,0.005364
1.969,0.007749,-0.000298
1.9695,0.003576,0.003278
1.97,0.003576,0.005662
1.9705,0.007451,0.003874
1.971,0.008047,0.001788
1.9715,0.00447,0.011027
1.972,0.000596,0.020266
1.9725,-0.003874,0.02563
1.973,0.00149,0.020564
1.9735,0.00149,0.013411
1.974,0,0.012219
1.9745,-0.002682,0.013411
1.975,0.003576,0.008643
1.9755,0.003576,0.004768
1.976,0.005066,0.000894
1.9765,0.010133,0
1.977,0.014901,-0.000894
1.9775,0.014305,-0.006557
1.978,0.013411,-0.007451
1.9785,0.010729,-0.003278
1.979,0.008643,-0.003874
1.9795,0.009239,-0.002682
1.98,0.014305,-0.003874
1.9805,0.016093,-0.003278
1.981,0.015497,-0.002384
1.9815,0.013411,0
1.982,0.004768,0.000596
1.9825,0.003874,0.005066
1.983,-0.002086,0.006855
1.9835,-0.00447,0.00596
1.984,-0.005662,0.011027
1.9845,-0.013411,0.009537
1.985,-0.004172,0.006258
1.9855,0.000894,0.005364
1.986,0.001788,0.005662
1.9865,0.002086,0.005662
1.987,0.001192,0.005066
1.9875,0.000298,0.003278
1.988,0.00298,0.004768
1.9885,0.007451,0.007153
1.989,0.003576,0.011325
1.9895,-0.003874,0.011325
1.99,-0.009537,0.014603
1.9905,-0.00298,0.012815
1.991,-0.001788,0.008047
1.9915,0.004172,0.006855
1.992,0.002682,0.009835
1.9925,0.000298,0.009835
1.993,0.00596,0.007749
1.9935,0.006855,0.006855
1.994,0.004768,0.007749
1.9945,0.005066,0.007153
1.995,0.005364,0.005066
1.9955,0.00447,0.006855
1.996,0.005364,0.006258
1.9965,0.009239,0.007153
1.997,0.002682,0.009835
1.9975,-0.000894,0.008345
1.998,-0.001192,0.008941
1.9985,-0.002384,0.008643
1.999,0.002384,0.009835
1.9995,-0.002086,0.005364
2,-0.003278,0.004768
2.0005,-0.00298,0.008941
2.001,0.001192,0.011325
2.0015,0.00149,0.004172
2.002,0.002384,0.00596
2.0025,-0.001788,0.002682
2.003,-0.002086,0.00298
2.0035,0.000894,0.004768
2.004,0.004172,0.002682
2.0045,0.007451,-0.002682
2.005,0.00447,-0.00596
2.0055,0.006855,0.00298
2.006,0.006557,0.00298
2.0065,0.008643,-0.00298
2.007,0.00596,-0.003576
2.0075,0.003874,-0.001192
2.008,0.007749,-0.002384
2.0085,0.007451,-0.003278
2.009,0.007153,-0.005364
2.0095,0.009239,-0.002682
2.01,0.009239,-0.00298
2.0105,0.00149,-0.002682
2.011,-0.002384,0.005662
2.0115,-0.00596,0.007153
2.012,-0.006557,0.004768
2.0125,-0.005662,0.006855
2.013,-0.003278,0.00298
2.0135,-0.000894,0.005364
2.014,0,0.005662
2.0145,-0.001192,0.007749
2.015,0.003576,0.015199
2.0155,0.002384,0.010729
2.016,-0.000894,0.011027
2.0165,0.002086,0.016093
2.017,0.002086,0.013709
2.0175,0.003278,0.013709
2.018,0.005364,0.010133
2.0185,0.014007,0.007749
2.019,0.012219,0.007749
2.0195,0.006258,0.00596
2.02,0.005364,0.002384
2.0205,0.005364,0.005364
2.021,0.006855,0.009537
2.0215,0.010133,0.005364
2.022,0.008345,0.006557
2.0225,0.010729,0.006258
2.023,0.012517,0.005662
2.0235,0.010729,-0.000596
2.024,0.014305,-0.00298
2.0245,0.014603,-0.000894
2.025,0.016391,0.00149
2.0255,0.010729,0.006855
2.026,0.005364,0.007153
2.0265,-0.001788,0.009835
2.027,0.004172,0.007451
2.0275,0.006855,0.004768
2.028,0.004768,0.007451
2.0285,-0.000298,0.008047
2.029,-0.010729,0.016391
2.0295,-0.023246,0.026822
2.03,-0.023842,0.026822
2.0305,-0.025928,0.02265
2.031,-0.016689,0.015199
2.0315,-0.007749,0.016391
2.032,-0.005066,0.015199
2.0325,-0.003278,0.011027
2.033,0.003874,0.011921
2.0335,0.001788,0.013411
2.034,0.009239,0.016987
2.0345,0.014305,0.016987
2.035,0.011921,0.014305
2.0355,0.008047,0.014901
2.036,-0.008345,0.012815
2.0365,-0.015199,0.014305
2.037,-0.014603,0.010729
2.0375,-0.013113,0.005364
2.038,-0.011325,0.002086
2.0385,0.001788,0.001788
2.039,0.010729,-0.004768
2.0395,0.009835,-0.007749
2.04,0.011921,-0.008047
2.0405,0.018179,-0.011623
2.041,0.030398,-0.018179
2.0415,0.037253,-0.027418
2.042,0.035763,-0.0301
2.0425,0.028312,-0.021458
2.043,0.022054,-0.014007
2.0435,0.022352,-0.011325
2.044,0.015795,-0.007153
2.0445,0.021458,-0.002384
2.045,0.020564,0.000894
2.0455,0.019968,-0.004768
2.046,0.021756,-0.006557
2.0465,0.02265,-0.005364
2.047,0.023544,-0.006557
2.0475,0.018775,-0.001788
2.048,0.011623,-0.001788
2.0485,0.003874,0.005662
2.049,-0.005364,0.012219
2.0495,-0.008643,0.016689
2.05,-0.004172,0.015497
2.0505,0.003874,0.010133
2.051,0.008047,0.002086
2.0515,0.009537,0.007451
2.052,0.008941,0.011027
2.0525,0.008047,0.008941
2.053,0.003874,0.013113
2.0535,0.005662,0.010431
2.054,0.00596,0.008345
2.0545,0.006258,0.010431
2.055,0.005662,0.008345
2.0555,0.003278,0.009835
2.056,-0.004768,0.011027
2.0565,-0.001788,0.016689
2.057,-0.002086,0.011921
2.0575,0.001788,0.011623
2.058,0.000596,0.012517
2.0585,-0.003874,0.009835
2.059,-0.004172,0.010729
2.0595,0.003278,0.009537
2.06,0.00596,0.000894
2.0605,0.008941,0.000596
2.061,0.008047,0.000894
2.0615,0.008345,0.003278
2.062,0.013709,-0.002086
2.0625,0.023842,-0.00447
2.063,0.024438,-0.002086
2.0635,0.014007,-0.002682
2.064,0.007451,0.001192
2.0645,-0.005662,0.010729
2.065,-0.013113,0.013113
2.0655,-0.008643,0.009835
2.066,-0.008643,0.005364
2.0665,-0.000596,0.007451
2.067,0,0.00596
2.0675,-0.002384,0.004172
2.068,-0.004172,0.007749
2.0685,0.00298,0.006557
2.069,0.005662,0.004172
2.0695,0.005066,0.007451
2.07,0.003576,0.003576
2.0705,0.00298,0.009537
2.071,0.002384,0.00596
2.0715,0.001192,0.001788
2.072,0.001788,0.005364
2.0725,-0.001192,0.006557
2.073,-0.002682,0.010729
2.0735,-0.002086,0.014305
2.074,0,0.012219
2.0745,0.00447,0.007451
2.075,0.002682,0.011325
2.0755,0.000596,0.004768
2.076,0.001192,0.007749
2.0765,0.003278,0.006855
2.077,-0.00149,0.006855
2.0775,-0.002682,0.005662
2.078,0.004768,0.005066
2.0785,0.00596,0.004172
2.079,0.008047,0.002682
2.0795,0.008047,0.000596
2.08,0.006855,0.002682
2.0805,0.006258,0.005364
2.081,0.006855,0.005364
2.0815,0.008047,0.007451
2.082,0.010729,0.004768
2.0825,0.012219,0.00447
2.083,0.006258,0.00596
2.0835,0.005662,0.00298
2.084,0.014007,-0.002384
2.0845,0.018775,-0.002384
2.085,0.016689,-0.00149
2.0855,0.012219,-0.000596
2.086,0.004172,0.001788
2.0865,-0.00298,0.004768
2.087,-0.007749,0.007153
2.0875,-0.006557,0.008941
2.088,-0.00298,0.009239
2.0885,-0.007153,0.006855
2.089,-0.013709,0.010431
2.0895,-0.010431,0.013411
2.09,-0.007153,0.015497
2.0905,-0.001192,0.007451
2.091,0.000894,0.005364
2.0915,0.006855,0.007749
2.092,0.00298,0.007451
2.0925,0.003576,0.007451
2.093,0.003278,0.009537
2.0935,0.003874,0.005364
2.094,0.008047,0.005364
2.0945,0.00298,0.005066
2.095,0.008941,0.008941
2.0955,0.00298,0.008345
2.096,0.001788,0.009537
2.0965,0.00298,0.008643
2.097,0.007451,0.006557
2.0975,0.013411,0.003874
2.098,0.013113,0.003874
2.0985,0.007153,0.004768
2.099,0.008345,0.005662
2.0995,0.006258,0.00596
2.1,0.005066,0.005364
2.1005,0.014007,0.002384
2.101,0.011325,0.002384
2.1015,-0.00149,0.005364
2.102,-0.004768,0.00596
2.1025,-0.00447,0.009239
2.103,-0.001788,0.008941
2.1035,0.002086,0.007749
2.104,0.004172,0.00298
2.1045,0.009835,0.001192
2.105,0.00596,0.003874
2.1055,0.009239,0.002682
2.106,0.006855,0.008345
2.1065,0.003278,0.00596
2.107,0.005662,0.004172
2.1075,0.007451,-0.002682
2.108,0.007451,0.000894
2.1085,0.003576,0.002682
2.109,0.006557,0.000894
2.1095,0.011623,-0.00447
2.11,0.013113,-0.010133
2.1105,0.008941,-0.00596
2.111,0.010431,0
2.1115,0.011325,-0.00596
2.112,0.013411,-0.009537
2.1125,0.010431,-0.008345
2.113,0.008643,-0.00447
2.1135,0.00149,0.001192
2.114,-0.00149,0.003576
2.1145,-0.000298,0.006258
2.115,0.004172,0.00298
2.1155,0.010133,0.003874
2.116,0.010729,0.001192
2.1165,0.009239,0.003874
2.117,0.008643,0.004172
2.1175,0.006258,-0.001192
2.118,0.011921,0.001788
2.1185,0.011623,-0.00447
2.119,0.008941,-0.002086
2.1195,0.006258,0.003576
2.12,0.004768,0.005662
2.1205,0.003278,0.005364
2.121,0.009239,0.002682
2.1215,0.010729,-0.001192
2.122,0.005364,0.005066
2.1225,-0.008345,0.007749
2.123,-0.016987,0.008643
2.1235,-0.010431,0.009239
2.124,-0.006855,0.006557
2.1245,-0.008643,0.006855
2.125,-0.008345,0.008941
2.1255,-0.004768,0.003576
2.126,0.000596,0.00298
2.1265,-0.00149,0.003278
2.127,0.000894,-0.00149
2.1275,0.006557,0.00596
2.128,0.00596,0.000596
2.1285,0.001788,0.002086
2.129,-0.000894,0.00596
2.1295,-0.007451,0.006258
2.13,-0.010729,0.005066
2.1305,-0.001788,0.003576
2.131,0.00447,0.005066
2.1315,0.001788,0.000894
2.132,-0.003576,0.003874
2.1325,-0.018179,0.014007
2.133,-0.016987,0.02712
2.1335,-0.012815,0.024736
2.134,-0.012517,0.023842
2.1345,-0.010133,0.026822
2.135,-0.005662,0.023544
2.1355,-0.002682,0.017285
2.136,-0.000596,0.013709
2.1365,0.008047,0.006855
2.137,0.014603,-0.002086
2.1375,0.015795,-0.006557
2.138,0.009537,-0.009537
2.1385,0.008047,-0.020266
2.139,0.017285,-0.025034
2.1395,0.020862,-0.023842
2.14,0.021756,-0.025332
2.1405,0.017881,-0.023246
2.141,0.016391,-0.022054
2.1415,0.013411,-0.012517
2.142,0.001788,-0.00149
2.1425,-0.008345,0.002384
2.143,-0.006855,0.00447
2.1435,-0.000894,0.00149
2.144,0.005364,-0.005066
2.1445,0.006258,-0.004768
2.145,0.00447,-0.002086
2.1455,0.000894,0.005364
2.146,-0.000298,0.003874
2.1465,0.00149,0.005662
2.147,0.000894,0.00596
2.1475,-0.00149,0.013709
2.148,-0.008047,0.016391
2.1485,-0.018477,0.020862
2.149,-0.026226,0.025034
2.1495,-0.028014,0.030398
2.15,-0.025034,0.02712
2.1505,-0.010431,0.01967
2.151,-0.00149,0.009239
2.1515,0.003576,0.007451
2.152,0.000596,0.006855
2.1525,-0.007153,0.011325
2.153,-0.008345,0.012219
2.1535,0.001192,0.008345
2.154,0.010431,0.009835
2.1545,0.003278,0.010431
2.155,-0.007451,0.016391
2.1555,-0.008941,0.009239
2.156,0.000596,0.002384
2.1565,0.006557,-0.001788
2.157,0.015199,-0.008941
2.1575,0.009835,0.005662
2.158,0.003278,0.008643
2.1585,0.011027,0.001788
2.159,0.005066,0.009835
2.1595,0.003278,0.008643
2.16,0.013709,0.002086
2.1605,0.017881,0.00149
2.161,0.017583,0.011027
2.1615,0.020564,0.011027
2.162,0.021458,0.006855
2.1625,0.021458,-0.002086
2.163,0.025928,-0.007153
2.1635,0.032187,-0.015795
2.164,0.028312,-0.02116
2.1645,0.033379,-0.022352
2.165,0.035763,-0.018179
2.1655,0.032783,-0.019372
2.166,0.0301,-0.019073
2.1665,0.029504,-0.02563
2.167,0.032783,-0.025034
2.1675,0.031292,-0.019073
2.168,0.02116,-0.012815
2.1685,0.011027,-0.005066
2.169,0.00298,-0.000298
2.1695,0.00298,-0.000298
2.17,0.003874,-0.000298
2.1705,0.00149,0.00298
2.171,0.00596,0.008345
2.1715,0.011325,0.013709
2.172,0.018477,0.011027
2.1725,0.010431,0.011027
2.173,0.007749,0.012517
2.1735,0.011623,0.009537
2.174,0.013113,0.004172
2.1745,0.017583,-0.000894
2.175,0.019968,-0.00596
2.1755,0.022948,-0.012219
2.176,0.022352,-0.009239
2.1765,0.016093,-0.00298
2.177,0.005066,0.00447
2.1775,0.001788,0.003576
2.178,0.001192,0.002086
2.1785,-0.008345,0.001192
2.179,-0.011623,0.000596
2.1795,-0.005662,0.002682
2.18,-0.005364,0.008047
2.1805,-0.010133,0.006557
2.181,-0.006855,0.008941
2.1815,-0.010431,0.014007
2.182,-0.007451,0.010133
2.1825,-0.006258,0.016987
2.183,-0.008047,0.015795
2.1835,-0.002086,0.010729
2.184,0.006855,0.005364
2.1845,0.007153,0.004768
2.185,0.006855,0.005066
2.1855,0.003874,0.005662
2.186,0.004768,0.008643
2.1865,0.005364,0.010729
2.187,0.001192,0.014007
2.1875,0.005364,0.009537
2.188,0.013113,0.008047
2.1885,0.02116,-0.000298
2.189,0.030696,0.000596
2.1895,0.029802,0.001788
2.19,0.024736,0.00149
2.1905,0.018775,0.006855
2.191,0.008047,0.009835
2.1915,-0.001788,0.019968
2.192,-0.010729,0.026524
2.1925,-0.022352,0.033975
2.193,-0.02563,0.033677
2.1935,-0.02414,0.023544
2.194,-0.018477,0.021756
2.1945,-0.017285,0.021756
2.195,-0.012815,0.021458
2.1955,-0.018477,0.01967
2.196,-0.009239,0.016093
2.1965,0.002384,0.006855
2.197,0.008643,0.003576
2.1975,0.014901,0.003278
2.198,0.014305,0.008345
2.1985,0.007749,0.009239
2.199,0.004768,0.013709
2.1995,-0.000596,0.010133
2.2,0,0.012219
2.2005,0.004768,0.009835
2.201,0.005662,0.006557
2.2015,0.005662,0.009537
2.202,0.010133,0.007451
2.2025,0.005066,0.008345
2.203,0.003278,0.003576
2.2035,0.009835,-0.001192
2.204,0.011325,0.000298
2.2045,0.017583,-0.000298
2.205,0.020862,0.000894
2.2055,0.014901,0.004768
2.206,-0.000894,0.008643
2.2065,-0.006855,0.011921
2.207,-0.013113,0.012517
2.2075,-0.018775,0.016093
2.208,-0.008643,0.016093
2.2085,-0.001192,0.012815
2.209,0.012219,0.007153
2.2095,0.023544,0.00596
2.21,0.025034,0.003278
2.2105,0.02265,0.005066
2.211,0.025332,0.006258
2.2115,0.018775,0.006258
2.212,0.006258,0.010729
2.2125,0.000894,0.010133
2.213,-0.00149,0.009835
2.2135,0.00149,0.009537
2.214,0.005662,0.00447
2.2145,0.012517,0.000596
2.215,0.007153,-0.001788
2.2155,0.000298,0.001788
2.216,0,0.00447
2.2165,0.00149,0.006557
2.217,0.00298,0.010133
2.2175,-0.00298,0.014007
2.218,0,0.011027
2.2185,0.017285,0.000596
2.219,0.034273,-0.002384
2.2195,0.046194,-0.00596
2.22,0.043213,-0.004768
2.2205,0.026524,-0.002682
2.221,0.015795,0.002682
2.2215,0.012219,0.00447
2.222,0.005066,0.006557
2.2225,0.008941,0.005364
2.223,0.008047,0.00149
2.2235,-0.010431,0.012517
2.224,-0.028312,0.015795
2.2245,-0.02712,0.012517
2.225,-0.022054,0.008643
2.2255,-0.018179,0.009835
2.226,-0.022948,0.016391
2.2265,-0.016391,0.009835
2.227,-0.003576,0.002682
2.2275,-0.000894,0.005662
2.228,-0.001788,0.003576
2.2285,0.002682,-0.002682
2.229,0.000596,0.000596
2.2295,-0.000298,0.005364
2.23,0.00447,0.000894
2.2305,0.005066,0.005364
2.231,-0.000894,0.009537
2.2315,-0.001192,0.008345
2.232,-0.000596,0.005662
2.2325,0.00149,-0.001788
2.233,0.008047,-0.004172
2.2335,0.020266,-0.010133
2.234,0.026524,-0.012219
2.2345,0.02712,-0.014603
2.235,0.018775,-0.013113
2.2355,0.015497,-0.011921
2.236,0.017881,-0.011325
2.2365,0.019073,-0.008345
2.237,0.011027,-0.007153
2.2375,-0.005066,0.00447
2.238,-0.013411,0.015497
2.2385,-0.016093,0.010729
2.239,-0.011325,0.007451
2.2395,-0.000894,0.002682
2.24,0.003874,0.000894
2.2405,0.007153,-0.00298
2.241,0.007153,-0.001192
2.2415,0.005662,0.002682
2.242,-0.000596,0.006258
2.2425,-0.002086,0.00447
2.243,0.003874,0.00447
2.2435,0.006855,0.00149
2.244,0.007153,0.003874
2.2445,0.008643,0.001788
2.245,0.015795,-0.000298
2.2455,0.017583,-0.000596
2.246,0.017285,-0.003576
2.2465,0.021756,-0.003278
2.247,0.022054,0
2.2475,0.014007,0.000596
2.248,0.007153,0.001192
2.2485,0.000298,0.005662
2.249,0.00596,0.002682
2.2495,0.007153,0.00447
2.25,0.008941,0.004768
2.2505,0.005066,0.006557
2.251,-0.00149,0.009239
2.2515,0.001192,0.015199
2.252,0.006258,0.007749
2.2525,0.007451,0.002086
2.253,0.001192,-0.002086
2.2535,0.000298,-0.000298
2.254,-0.002682,0.009239
2.2545,-0.003874,0.015497
2.255,-0.008047,0.015199
2.2555,0.004172,0.005364
2.256,0.016391,-0.000298
2.2565,0.011623,-0.000298
2.257,0.000596,0.002384
2.2575,-0.00298,0.00298
2.258,0.005364,0.000596
2.2585,0.009835,0.003576
2.259,0.005066,0.006855
2.2595,0.001192,-0.000298
2.26,0.001192,0.000298
2.2605,-0.001192,0.003874
2.261,0.002682,0.005662
2.2615,0.002086,0.004768
2.262,0.007451,0
2.2625,0.011623,-0.003278
2.263,0.015199,-0.007451
2.2635,0.02116,-0.009835
2.264,0.023544,-0.011027
2.2645,0.015199,-0.008345
2.265,0.002086,0.003576
2.2655,-0.003576,0.010431
2.266,-0.006258,0.009835
2.2665,0.002682,0.010431
2.267,0.007749,0.002384
2.2675,0.003278,0.005364
2.268,-0.003576,0.005662
2.2685,0.000596,0.008643
2.269,0.005364,0.003874
2.2695,0.006855,-0.000894
2.27,0.008643,0.004172
2.2705,0.007153,-0.000298
2.271,0.010133,-0.002384
2.2715,0.012517,0.000596
2.272,0.009537,0.000298
2.2725,0.006258,0.000596
2.273,0.004768,0.000596
2.2735,0.001192,-0.000298
2.274,-0.006855,0
2.2745,-0.018775,0.004768
2.275,-0.026226,0.015497
2.2755,-0.023544,0.014901
2.276,-0.011027,0.008941
2.2765,-0.001192,0.002682
2.277,0.00447,0.000298
2.2775,0.012517,0.002682
2.278,0.006557,0.001788
2.2785,0.001192,0.005066
2.279,-0.004172,0.001788
2.2795,-0.003278,0.000894
2.28,-0.005662,0.001192
2.2805,-0.00298,0.002086
2.281,-0.001788,-0.003874
2.2815,-0.000298,0.002682
2.282,0.000596,0.008047
2.2825,-0.003576,0.006557
2.283,-0.000298,0.004172
2.2835,0.003874,0.003874
2.284,0.006557,0.003576
2.2845,0.007451,-0.00298
2.285,0.004768,-0.008345
2.2855,0.000894,-0.003874
2.286,0,-0.001192
2.2865,0.006855,0
2.287,0.015795,-0.005066
2.2875,0.013113,-0.006258
2.288,0.011027,-0.008047
2.2885,0.008047,-0.006557
2.289,0.011325,-0.005662
2.2895,0.010133,-0.000894
2.29,0.007153,0.001788
2.2905,0.002384,0.005364
2.291,-0.001788,0.010133
2.2915,-0.007749,0.014901
2.292,-0.008345,0.014007
2.2925,-0.00447,0.008643
2.293,0.004172,0.001788
2.2935,0.013709,-0.003576
2.294,0.010729,-0.00596
2.2945,0.012219,-0.005364
2.295,0.014603,-0.004172
2.2955,0.018775,-0.006557
2.296,0.022948,-0.008345
2.2965,0.02712,-0.00596
2.297,0.017583,-0.003278
2.2975,0.004172,0.00447
2.298,-0.006855,0.009835
2.2985,-0.00596,0.009239
2.299,-0.000894,0.005066
2.2995,-0.007451,0.015199
2.3,-0.016093,0.022054
2.3005,-0.008941,0.017881
2.301,0.004172,0.014007
2.3015,0.009537,0.008941
2.302,0.017881,-0.000596
2.3025,0.019073,-0.00596
2.303,0.011027,0.001788
2.3035,-0.006258,0.012517
2.304,-0.016093,0.019073
2.3045,-0.016689,0.021458
2.305,-0.009239,0.018179
2.3055,-0.006855,0.009537
2.306,0.000596,0.008941
2.3065,0.001788,0.007749
2.307,0.006557,0.00149
2.3075,0.019372,-0.000894
2.308,0.018775,-0.00447
2.3085,0.016689,-0.00298
2.309,0.019968,-0.000298
2.3095,0.019073,-0.00149
2.31,0.017583,0.001788
2.3105,0.013411,0.00298
2.311,0.007749,0.001192
2.3115,-0.00149,0.013113
2.312,-0.014901,0.016391
2.3125,-0.016391,0.014603
2.313,-0.016391,0.017285
2.3135,-0.012815,0.019073
2.314,0.000298,0.015497
2.3145,0.002682,0.013709
2.315,0.00447,0.014305
2.3155,0.000298,0.015795
2.316,-0.008345,0.018775
2.3165,-0.010133,0.019372
2.317,-0.008047,0.019372
2.3175,-0.007451,0.019372
2.318,0.008047,0.008643
2.3185,0.012815,0.002682
2.319,0.010431,0.00298
2.3195,0.015497,0.001192
2.32,0.01967,-0.00298
2.3205,0.016391,-0.003278
2.321,0.008643,0.002682
2.3215,0.002682,0.006557
2.322,-0.000894,0.008941
2.3225,0.006557,0.007153
2.323,0.018775,-0.000894
2.3235,0.021756,0
2.324,0.012815,0.004172
2.3245,0.008345,0.002682
2.325,0.019073,0.001192
2.3255,0.034571,-0.003576
2.326,0.035465,-0.011325
2.3265,0.037849,-0.016987
2.327,0.045002,-0.021458
2.3275,0.04679,-0.020862
2.328,0.044405,-0.020266
2.3285,0.041127,-0.014305
2.329,0.017583,0.003278
2.3295,-0.003576,0.015497
2.33,-0.008941,0.009835
2.3305,-0.002682,-0.000596
2.331,-0.00596,0.002086
2.3315,-0.012815,0.002384
2.332,-0.014603,0.008047
2.3325,-0.010133,0.007749
2.333,-0.005364,0.006557
2.3335,-0.005066,0.006557
2.334,-0.012219,0.013113
2.3345,-0.016391,0.011027
2.335,-0.009239,0.005662
2.3355,0.002086,0.006855
2.336,0.007153,0.008047
2.3365,0,0.006258
2.337,-0.006855,0.008047
2.3375,-0.004172,0.005066
2.338,0.003576,0.004172
2.3385,0.007153,0
2.339,-0.001192,0.002682
2.3395,-0.019073,0.017583
2.34,-0.0301,0.02265
2.3405,-0.027716,0.023246
2.341,-0.015199,0.021458
2.3415,-0.00447,0.017583
2.342,-0.00149,0.013411
2.3425,0.00149,0.015795
2.343,0.003874,0.011027
2.3435,0.003874,0.011027
2.344,0.000298,0.009835
2.3445,-0.000596,0.012219
2.345,-0.000596,0.014007
2.3455,-0.001788,0.020266
2.346,0.000894,0.017285
2.3465,0.010431,0.011027
2.347,0.017583,0.007749
2.3475,0.017285,0.008643
2.348,0.016093,0.004768
2.3485,0.014305,0.000298
2.349,0.007749,-0.00298
2.3495,0.002682,0.006557
2.35,0.00596,0.008345
2.3505,0.011325,0.008643
2.351,0.014603,0.008941
2.3515,0.018775,0.005066
2.352,0.01967,0.003874
2.3525,0.014007,0.007451
2.353,0.010729,0.008047
2.3535,0.008643,0.009835
2.354,0.013709,0.008047
2.3545,0.030994,-0.002086
2.355,0.049174,-0.007153
2.3555,0.034571,-0.001788
2.356,0.011623,0.009239
2.3565,-0.005066,0.019968
2.357,-0.015199,0.017583
2.3575,-0.013709,0.014007
2.358,-0.002682,0.011027
2.3585,0.007451,0.002384
2.359,0.009537,-0.003576
2.3595,0.007749,-0.007749
2.36,0.017285,-0.005066
2.3605,0.019372,0
2.361,0.009239,0.000894
2.3615,-0.00298,0.011921
2.362,-0.012815,0.018179
2.3625,-0.017881,0.021756
2.363,-0.016093,0.016391
2.3635,-0.015795,0.011921
2.364,-0.01967,0.008047
2.3645,-0.009239,0.005066
2.365,-0.00298,0.00149
2.3655,-0.00298,0.007749
2.366,-0.005364,0.009537
2.3665,0.002682,0.008643
2.367,0.008941,0.003576
2.3675,0.004172,0.00596
2.368,-0.000894,0.006557
2.3685,0.00298,0.005364
2.369,0.008643,0.001192
2.3695,0.006855,0.004768
2.37,0.006855,0.001788
2.3705,0.010729,0.003278
2.371,0.014603,0.002384
2.3715,0.013709,0.001192
2.372,0.011921,0.003278
2.3725,0.00149,0.013113
2.373,-0.011027,0.018179
2.3735,-0.008345,0.011325
2.374,0,0.004172
2.3745,0.006855,-0.003576
2.375,0.004768,0.000596
2.3755,0.006557,0.005662
2.376,0.009239,-0.002086
2.3765,0.012815,0
2.377,0.013709,0.001788
2.3775,0.012815,0.006557
2.378,0.001192,0.013709
2.3785,-0.007749,0.010133
2.379,-0.006557,0.008047
2.3795,0.000298,0.012219
2.38,0.00596,0.008643
2.3805,0.005364,0.00298
2.381,0.006258,-0.00298
2.3815,0.018775,-0.008047
2.382,0.02563,-0.011325
2.3825,0.022948,-0.011921
2.383,0.022948,-0.014305
2.3835,0.023544,-0.008643
2.384,0.014007,-0.00596
2.3845,0.016093,-0.003874
2.385,0.011623,0.00149
2.3855,-0.004172,0.00298
2.386,-0.007153,0.007153
2.3865,-0.003874,0.004768
2.387,0.001788,0.001192
2.3875,0.00298,0.003874
2.388,0.003576,0.00298
2.3885,0.012815,-0.00596
2.389,0.019073,-0.007153
2.3895,0.009537,0.000298
2.39,0.003576,0.005066
2.3905,0.007153,0.001192
2.391,0.013411,-0.006557
2.3915,0.018179,-0.009835
2.392,0.027716,-0.012219
2.3925,0.016093,-0.005662
2.393,0.005662,0.00447
2.3935,0.010729,-0.00298
2.394,0.014603,-0.006258
2.3945,-0.005662,0.005662
2.395,-0.02414,0.016987
2.3955,-0.024736,0.021756
2.396,-0.016689,0.02414
2.3965,-0.010133,0.020564
2.397,-0.007749,0.019968
2.3975,-0.008047,0.013709
2.398,-0.000596,0.00596
2.3985,0.005662,0.000298
2.399,0.008345,-0.001788
2.3995,0.012219,-0.004172
2.4,0.012219,-0.00298
2.4005,0.004768,0.001788
2.401,-0.008941,0.009239
2.4015,-0.014603,0.018775
2.402,-0.014007,0.019073
2.4025,-0.00596,0.005066
2.403,-0.001192,0.000298
2.4035,-0.002086,0.003874
2.404,-0.002682,0.003874
2.4045,-0.00149,0.007153
2.405,0.004768,0.004768
2.4055,0.018775,-0.004172
2.406,0.02712,-0.003576
2.4065,0.03159,-0.008941
2.407,0.034273,-0.010431
2.4075,0.038147,-0.012219
2.408,0.043511,-0.013709
2.4085,0.039637,-0.016689
2.409,0.017583,-0.008047
2.4095,-0.003874,-0.000596
2.41,-0.013709,0.00298
2.4105,-0.016391,0.012219
2.411,-0.025034,0.02414
2.4115,-0.034273,0.026226
2.412,-0.014901,0.016093
2.4125,0.011325,0.00596
2.413,0.020862,0.002682
2.4135,0.010729,0.00596
2.414,-0.002682,0.011027
2.4145,-0.017285,0.013411
2.415,-0.02861,0.026226
2.4155,-0.037849,0.029206
2.416,-0.03159,0.025332
2.4165,-0.018477,0.014007
2.417,-0.008345,0.011027
2.4175,-0.009239,0.013709
2.418,-0.008047,0.013411
2.4185,0,0.008345
2.419,0.008345,0.004172
2.4195,0.003874,0.00596
2.42,-0.003278,0.012517
2.4205,-0.014305,0.016689
2.421,-0.011623,0.013411
2.4215,-0.00149,0.007153
2.422,0.00447,0.007749
2.4225,0.008643,0.006258
2.423,0.004172,0.000894
2.4235,0.006258,-0.000596
2.424,0.002086,0.00298
2.4245,0.003576,0.003278
2.425,0.011921,-0.001192
2.4255,0.013709,0
2.426,-0.000298,0.008345
2.4265,-0.00298,0.004768
2.427,0.001192,0.000298
2.4275,0.004768,0.00149
2.428,-0.002086,0.001788
2.4285,0.011921,0.00298
2.429,0.016093,-0.004768
2.4295,0.022352,-0.005066
2.43,0.024438,-0.009537
2.4305,0.019372,-0.005662
2.431,0.018775,0.000894
2.4315,0.019968,0.001192
2.432,0.014007,-0.001192
2.4325,0.007451,0.005364
2.433,0.007451,0.006258
2.4335,0.007749,0.004172
2.434,-0.001788,0.00596
2.4345,-0.018179,0.012517
2.435,-0.017583,0.016093
2.4355,-0.005066,0.008643
2.436,0.002086,0.001788
2.4365,0.002682,0.004172
2.437,0.001192,0.003874
2.4375,0.002682,0.007749
2.438,0.005364,0.007451
2.4385,0.008941,0.009835
2.439,0.007451,0.006855
2.4395,0.010431,0.004768
2.44,0.012815,0.003874
2.4405,0.017881,0.005364
2.441,0.016987,0.003874
2.4415,0.014901,0.001192
2.442,0.011623,0.001192
2.4425,0.011027,0.001192
2.443,0.011027,0.000894
2.4435,0.012219,-0.003576
2.444,0.014305,0.002682
2.4445,0.014007,0.002384
2.445,0.016689,0.001192
2.4455,0.013113,-0.002086
2.446,0.013113,-0.00149
2.4465,0.016689,-0.00447
2.447,0.020564,-0.002682
2.4475,0.022352,0.000894
2.448,0.008941,0.007749
2.4485,0.00149,0.007451
2.449,0.00149,0.007749
2.4495,0.006557,0.009537
2.45,0.001788,0.008345
2.4505,-0.000596,0.014603
2.451,0.009537,0.013113
2.4515,0.016987,0.00149
2.452,0.016987,-0.003278
2.4525,0.015795,0.002682
2.453,0.014007,0.005364
2.4535,0.018179,0
2.454,0.024736,-0.003576
2.4545,0.026524,-0.008345
2.455,0.013411,0.001192
2.4555,0.000894,0.007749
2.456,-0.002086,0.006557
2.4565,-0.005364,0.007451
2.457,-0.008941,0.008643
2.4575,-0.005662,0.006258
2.458,0.011921,-0.002682
2.4585,0.019073,-0.005066
